t_s,ecg_mv
0.0000,0.0716
0.0040,0.0642
0.0080,0.0580
0.0120,0.0449
0.0160,0.0474
0.0200,0.0761
0.0240,0.0854
0.0280,0.0890
0.0320,0.0575
0.0360,0.0369
0.0400,0.0662
0.0440,0.1155
0.0480,0.0699
0.0520,0.0747
0.0560,0.0644
0.0600,0.0492
0.0640,0.0901
0.0680,0.0745
0.0720,0.0691
0.0760,0.0487
0.0800,0.0685
0.0840,0.1014
0.0880,0.0717
0.0920,0.0789
0.0960,0.0836
0.1000,0.0948
0.1040,0.0713
0.1080,0.1059
0.1120,0.0560
0.1160,0.0642
0.1200,0.1109
0.1240,0.1127
0.1280,0.1044
0.1320,0.0662
0.1360,0.0894
0.1400,0.0958
0.1440,0.0899
0.1480,0.1251
0.1520,0.1117
0.1560,0.1276
0.1600,0.1712
0.1640,0.1415
0.1680,0.2115
0.1720,0.1911
0.1760,0.2258
0.1800,0.1921
0.1840,0.2276
0.1880,0.2082
0.1920,0.2136
0.1960,0.1711
0.2000,0.1898
0.2040,0.1626
0.2080,0.1773
0.2120,0.1117
0.2160,0.1228
0.2200,0.1349
0.2240,0.1325
0.2280,0.1093
0.2320,0.0745
0.2360,0.0855
0.2400,0.1015
0.2440,0.1042
0.2480,0.1250
0.2520,0.0973
0.2560,0.0975
0.2600,0.1019
0.2640,0.1278
0.2680,0.0885
0.2720,0.0941
0.2760,0.0978
0.2800,0.0761
0.2840,0.1286
0.2880,0.1024
0.2920,0.0857
0.2960,0.0938
0.3000,0.0714
0.3040,0.0568
0.3080,0.0193
0.3120,-0.0149
0.3160,0.0102
0.3200,0.0201
0.3240,0.1342
0.3280,0.2116
0.3320,0.2950
0.3360,0.4730
0.3400,0.7257
0.3440,0.9541
0.3480,1.0808
0.3520,1.0703
0.3560,0.9116
0.3600,0.6965
0.3640,0.4868
0.3680,0.2345
0.3720,0.0591
0.3760,-0.0394
0.3800,-0.1080
0.3840,-0.0893
0.3880,-0.0234
0.3920,0.0272
0.3960,0.0505
0.4000,0.0993
0.4040,0.1106
0.4080,0.1160
0.4120,0.1154
0.4160,0.1073
0.4200,0.1191
0.4240,0.1054
0.4280,0.1375
0.4320,0.1088
0.4360,0.1071
0.4400,0.1364
0.4440,0.1083
0.4480,0.1443
0.4520,0.1222
0.4560,0.1100
0.4600,0.1136
0.4640,0.1549
0.4680,0.1244
0.4720,0.1224
0.4760,0.1118
0.4800,0.1389
0.4840,0.1332
0.4880,0.1641
0.4920,0.1383
0.4960,0.1625
0.5000,0.1256
0.5040,0.1473
0.5080,0.1428
0.5120,0.1553
0.5160,0.1750
0.5200,0.1478
0.5240,0.2247
0.5280,0.1856
0.5320,0.1879
0.5360,0.1920
0.5400,0.2145
0.5440,0.2513
0.5480,0.2672
0.5520,0.2200
0.5560,0.2589
0.5600,0.2972
0.5640,0.3017
0.5680,0.3249
0.5720,0.3247
0.5760,0.3254
0.5800,0.3609
0.5840,0.3984
0.5880,0.3970
0.5920,0.3945
0.5960,0.3903
0.6000,0.4203
0.6040,0.4520
0.6080,0.4569
0.6120,0.4313
0.6160,0.4138
0.6200,0.4126
0.6240,0.4260
0.6280,0.4532
0.6320,0.3970
0.6360,0.3888
0.6400,0.3923
0.6440,0.3848
0.6480,0.3544
0.6520,0.3082
0.6560,0.2768
0.6600,0.3192
0.6640,0.3071
0.6680,0.2631
0.6720,0.2563
0.6760,0.2186
0.6800,0.2361
0.6840,0.2512
0.6880,0.1882
0.6920,0.2165
0.6960,0.1971
0.7000,0.1860
0.7040,0.2036
0.7080,0.1767
0.7120,0.1477
0.7160,0.1356
0.7200,0.1573
0.7240,0.1712
0.7280,0.1748
0.7320,0.1544
0.7360,0.1434
0.7400,0.1508
0.7440,0.1649
0.7480,0.1408
0.7520,0.1293
0.7560,0.1148
0.7600,0.1412
0.7640,0.1384
0.7680,0.1467
0.7720,0.1405
0.7760,0.1353
0.7800,0.1447
0.7840,0.1561
0.7880,0.1354
0.7920,0.1255
0.7960,0.1502
0.8000,0.1540
0.8040,0.1503
0.8080,0.1378
0.8120,0.1350
0.8160,0.1370
0.8200,0.1662
0.8240,0.1540
0.8280,0.1717
0.8320,0.1535
0.8360,0.1445
0.8400,0.1692
0.8440,0.1740
0.8480,0.1441
0.8520,0.1463
0.8560,0.1396
0.8600,0.1651
0.8640,0.1498
0.8680,0.1339
0.8720,0.1462
0.8760,0.1405
0.8800,0.1633
0.8840,0.1676
0.8880,0.1424
0.8920,0.1184
0.8960,0.1662
0.9000,0.1405
0.9040,0.1600
0.9080,0.1415
0.9120,0.1559
0.9160,0.1418
0.9200,0.1320
0.9240,0.1320
0.9280,0.1481
0.9320,0.1570
0.9360,0.1384
0.9400,0.1413
0.9440,0.1533
0.9480,0.1625
0.9520,0.1488
0.9560,0.1152
0.9600,0.1571
0.9640,0.1587
0.9680,0.1391
0.9720,0.1365
0.9760,0.1739
0.9800,0.1582
0.9840,0.1533
0.9880,0.1491
0.9920,0.1215
0.9960,0.1602
1.0000,0.1593
1.0040,0.1622
1.0080,0.1359
1.0120,0.1462
1.0160,0.1275
1.0200,0.1422
1.0240,0.1301
1.0280,0.1326
1.0320,0.1322
1.0360,0.1346
1.0400,0.1355
1.0440,0.1786
1.0480,0.1524
1.0520,0.1519
1.0560,0.1552
1.0600,0.1471
1.0640,0.1515
1.0680,0.1268
1.0720,0.1338
1.0760,0.1495
1.0800,0.1544
1.0840,0.1668
1.0880,0.1755
1.0920,0.1765
1.0960,0.1917
1.1000,0.1617
1.1040,0.2016
1.1080,0.2265
1.1120,0.2080
1.1160,0.2017
1.1200,0.2447
1.1240,0.2696
1.1280,0.2756
1.1320,0.2377
1.1360,0.2658
1.1400,0.2591
1.1440,0.2572
1.1480,0.2367
1.1520,0.2551
1.1560,0.2096
1.1600,0.1942
1.1640,0.2230
1.1680,0.1857
1.1720,0.1592
1.1760,0.1523
1.1800,0.1680
1.1840,0.1586
1.1880,0.1588
1.1920,0.1389
1.1960,0.1036
1.2000,0.1193
1.2040,0.1465
1.2080,0.1419
1.2120,0.1437
1.2160,0.1376
1.2200,0.1522
1.2240,0.1467
1.2280,0.1396
1.2320,0.1429
1.2360,0.1341
1.2400,0.1353
1.2440,0.1327
1.2480,0.0642
1.2520,0.0070
1.2560,0.0432
1.2600,0.0553
1.2640,0.1002
1.2680,0.1738
1.2720,0.2649
1.2760,0.4216
1.2800,0.6236
1.2840,0.9022
1.2880,1.0862
1.2920,1.1161
1.2960,0.9917
1.3000,0.8198
1.3040,0.5643
1.3080,0.3326
1.3120,0.1254
1.3160,-0.0075
1.3200,-0.0782
1.3240,-0.0501
1.3280,-0.0445
1.3320,0.0115
1.3360,0.0583
1.3400,0.1192
1.3440,0.1131
1.3480,0.1274
1.3520,0.1336
1.3560,0.1553
1.3600,0.1428
1.3640,0.1190
1.3680,0.1272
1.3720,0.1293
1.3760,0.1030
1.3800,0.1262
1.3840,0.1209
1.3880,0.1482
1.3920,0.1309
1.3960,0.0814
1.4000,0.1489
1.4040,0.1281
1.4080,0.1298
1.4120,0.1462
1.4160,0.1101
1.4200,0.1354
1.4240,0.1224
1.4280,0.1300
1.4320,0.1429
1.4360,0.1244
1.4400,0.1540
1.4440,0.1774
1.4480,0.1414
1.4520,0.1369
1.4560,0.1340
1.4600,0.1468
1.4640,0.1729
1.4680,0.1651
1.4720,0.1754
1.4760,0.1994
1.4800,0.2197
1.4840,0.2702
1.4880,0.2879
1.4920,0.2296
1.4960,0.2885
1.5000,0.2968
1.5040,0.3159
1.5080,0.3411
1.5120,0.3296
1.5160,0.3444
1.5200,0.4092
1.5240,0.4007
1.5280,0.4272
1.5320,0.3964
1.5360,0.4022
1.5400,0.4344
1.5440,0.4276
1.5480,0.4321
1.5520,0.3985
1.5560,0.3952
1.5600,0.3683
1.5640,0.3491
1.5680,0.3541
1.5720,0.3363
1.5760,0.3119
1.5800,0.3000
1.5840,0.3043
1.5880,0.2619
1.5920,0.2309
1.5960,0.2068
1.6000,0.1885
1.6040,0.2191
1.6080,0.1904
1.6120,0.1737
1.6160,0.1537
1.6200,0.1553
1.6240,0.1638
1.6280,0.1492
1.6320,0.1318
1.6360,0.1073
1.6400,0.1143
1.6440,0.1231
1.6480,0.1323
1.6520,0.1062
1.6560,0.1207
1.6600,0.0962
1.6640,0.1338
1.6680,0.0844
1.6720,0.0885
1.6760,0.1120
1.6800,0.0703
1.6840,0.0545
1.6880,0.0879
1.6920,0.0996
1.6960,0.0899
1.7000,0.1031
1.7040,0.0886
1.7080,0.1037
1.7120,0.0631
1.7160,0.0814
1.7200,0.0884
1.7240,0.0808
1.7280,0.0869
1.7320,0.0907
1.7360,0.1124
1.7400,0.0605
1.7440,0.0970
1.7480,0.0696
1.7520,0.0814
1.7560,0.0717
1.7600,0.0629
1.7640,0.0809
1.7680,0.0939
1.7720,0.0705
1.7760,0.0851
1.7800,0.0643
1.7840,0.1074
1.7880,0.0755
1.7920,0.0695
1.7960,0.0776
1.8000,0.0588
1.8040,0.0850
1.8080,0.0622
1.8120,0.0690
1.8160,0.0775
1.8200,0.0735
1.8240,0.0611
1.8280,0.0565
1.8320,0.0480
1.8360,0.0625
1.8400,0.0928
1.8440,0.0855
1.8480,0.0577
1.8520,0.0615
1.8560,0.0759
1.8600,0.0699
1.8640,0.0578
1.8680,0.0426
1.8720,0.0800
1.8760,0.0454
1.8800,0.0450
1.8840,0.0560
1.8880,0.0814
1.8920,0.0148
1.8960,0.0677
1.9000,0.0695
1.9040,0.1074
1.9080,0.0766
1.9120,0.0553
1.9160,0.0580
1.9200,0.0628
1.9240,0.0562
1.9280,0.0698
1.9320,0.0410
1.9360,0.0463
1.9400,0.0754
1.9440,0.0825
1.9480,0.0649
1.9520,0.0522
1.9560,0.1015
1.9600,0.1003
1.9640,0.1306
1.9680,0.1478
1.9720,0.1255
1.9760,0.1118
1.9800,0.1625
1.9840,0.1626
1.9880,0.1536
1.9920,0.1436
1.9960,0.1466
2.0000,0.1439
2.0040,0.1274
2.0080,0.1170
2.0120,0.1132
2.0160,0.0938
2.0200,0.0714
2.0240,0.0776
2.0280,0.0763
2.0320,0.0560
2.0360,0.0380
2.0400,0.0611
2.0440,0.0363
2.0480,0.0244
2.0520,0.0297
2.0560,0.0220
2.0600,0.0414
2.0640,0.0553
2.0680,0.0451
2.0720,0.0173
2.0760,0.0386
2.0800,0.0235
2.0840,0.0397
2.0880,0.0192
2.0920,0.0152
2.0960,-0.0364
2.1000,-0.0548
2.1040,-0.0553
2.1080,-0.0825
2.1120,-0.0494
2.1160,-0.0078
2.1200,0.0960
2.1240,0.2423
2.1280,0.3815
2.1320,0.5929
2.1360,0.8319
2.1400,1.0043
2.1440,1.0116
2.1480,0.8861
2.1520,0.6112
2.1560,0.3409
2.1600,0.1272
2.1640,-0.0349
2.1680,-0.1241
2.1720,-0.1814
2.1760,-0.1969
2.1800,-0.1301
2.1840,-0.0570
2.1880,-0.0356
2.1920,-0.0117
2.1960,-0.0084
2.2000,-0.0165
2.2040,0.0184
2.2080,-0.0021
2.2120,-0.0247
2.2160,-0.0121
2.2200,-0.0102
2.2240,0.0068
2.2280,0.0063
2.2320,-0.0373
2.2360,-0.0154
2.2400,0.0249
2.2440,-0.0038
2.2480,0.0057
2.2520,0.0040
2.2560,-0.0264
2.2600,-0.0151
2.2640,0.0220
2.2680,-0.0051
2.2720,0.0040
2.2760,-0.0168
2.2800,0.0183
2.2840,0.0074
2.2880,0.0053
2.2920,-0.0172
2.2960,0.0019
2.3000,0.0255
2.3040,0.0613
2.3080,0.0208
2.3120,0.0176
2.3160,0.0304
2.3200,0.0420
2.3240,0.0585
2.3280,0.0872
2.3320,0.0892
2.3360,0.0881
2.3400,0.1193
2.3440,0.1592
2.3480,0.1666
2.3520,0.1507
2.3560,0.1731
2.3600,0.1819
2.3640,0.2281
2.3680,0.2323
2.3720,0.2380
2.3760,0.2533
2.3800,0.2689
2.3840,0.2993
2.3880,0.2728
2.3920,0.2747
2.3960,0.2619
2.4000,0.2353
2.4040,0.2771
2.4080,0.2396
2.4120,0.2253
2.4160,0.2115
2.4200,0.2089
2.4240,0.2000
2.4280,0.1847
2.4320,0.1477
2.4360,0.1537
2.4400,0.1003
2.4440,0.1174
2.4480,0.0990
2.4520,0.0474
2.4560,0.0408
2.4600,0.0464
2.4640,0.0216
2.4680,0.0338
2.4720,-0.0002
2.4760,-0.0403
2.4800,-0.0234
2.4840,0.0048
2.4880,-0.0195
2.4920,-0.0369
2.4960,-0.0540
2.5000,-0.0451
2.5040,-0.0312
2.5080,-0.0295
2.5120,-0.0450
2.5160,-0.0502
2.5200,-0.0544
2.5240,-0.0304
2.5280,-0.0526
2.5320,-0.0762
2.5360,-0.0574
2.5400,-0.0866
2.5440,-0.0145
2.5480,-0.0537
2.5520,-0.0824
2.5560,-0.0620
2.5600,-0.0567
2.5640,-0.0556
2.5680,-0.0695
2.5720,-0.0569
2.5760,-0.0703
2.5800,-0.0260
2.5840,-0.0430
2.5880,-0.0632
2.5920,-0.0527
2.5960,-0.0625
2.6000,-0.0786
2.6040,-0.0707
2.6080,-0.0603
2.6120,-0.0324
2.6160,-0.0628
2.6200,-0.0911
2.6240,-0.0600
2.6280,-0.0455
2.6320,-0.0513
2.6360,-0.0890
2.6400,-0.0428
2.6440,-0.0447
2.6480,-0.0490
2.6520,-0.0545
2.6560,-0.0688
2.6600,-0.0753
2.6640,-0.0634
2.6680,-0.0546
2.6720,-0.0698
2.6760,-0.0869
2.6800,-0.0529
2.6840,-0.0532
2.6880,-0.0565
2.6920,-0.0923
2.6960,-0.0823
2.7000,-0.0770
2.7040,-0.0965
2.7080,-0.0964
2.7120,-0.0978
2.7160,-0.0904
2.7200,-0.0756
2.7240,-0.0673
2.7280,-0.0692
2.7320,-0.0819
2.7360,-0.1043
2.7400,-0.0768
2.7440,-0.0817
2.7480,-0.0745
2.7520,-0.0922
2.7560,-0.1180
2.7600,-0.0967
2.7640,-0.0548
2.7680,-0.0832
2.7720,-0.0700
2.7760,-0.0789
2.7800,-0.0945
2.7840,-0.0836
2.7880,-0.0664
2.7920,-0.0857
2.7960,-0.0719
2.8000,-0.0790
2.8040,-0.0555
2.8080,-0.0156
2.8120,-0.0135
2.8160,-0.0009
2.8200,-0.0323
2.8240,0.0138
2.8280,0.0448
2.8320,0.0189
2.8360,0.0090
2.8400,0.0150
2.8440,0.0105
2.8480,0.0125
2.8520,-0.0263
2.8560,-0.0423
2.8600,-0.0114
2.8640,-0.0346
2.8680,-0.0353
2.8720,-0.0678
2.8760,-0.0703
2.8800,-0.0742
2.8840,-0.0555
2.8880,-0.0874
2.8920,-0.1187
2.8960,-0.0929
2.9000,-0.0871
2.9040,-0.0856
2.9080,-0.1075
2.9120,-0.0935
2.9160,-0.1191
2.9200,-0.1128
2.9240,-0.1204
2.9280,-0.0924
2.9320,-0.1173
2.9360,-0.1281
2.9400,-0.1224
2.9440,-0.1302
2.9480,-0.1892
2.9520,-0.2001
2.9560,-0.2146
2.9600,-0.2064
2.9640,-0.1384
2.9680,-0.0953
2.9720,-0.0143
2.9760,0.1403
2.9800,0.3408
2.9840,0.5933
2.9880,0.8021
2.9920,0.8767
2.9960,0.7955
3.0000,0.6272
3.0040,0.3679
3.0080,0.1303
3.0120,-0.1025
3.0160,-0.2175
3.0200,-0.3147
3.0240,-0.3330
3.0280,-0.2884
3.0320,-0.2278
3.0360,-0.2034
3.0400,-0.1540
3.0440,-0.1256
3.0480,-0.1041
3.0520,-0.1163
3.0560,-0.1498
3.0600,-0.1430
3.0640,-0.0903
3.0680,-0.0766
3.0720,-0.1378
3.0760,-0.1288
3.0800,-0.1169
3.0840,-0.1111
3.0880,-0.1336
3.0920,-0.1454
3.0960,-0.1657
3.1000,-0.1405
3.1040,-0.1347
3.1080,-0.1060
3.1120,-0.1326
3.1160,-0.1164
3.1200,-0.1170
3.1240,-0.1090
3.1280,-0.1102
3.1320,-0.1463
3.1360,-0.1029
3.1400,-0.1055
3.1440,-0.1234
3.1480,-0.0899
3.1520,-0.1202
3.1560,-0.1203
3.1600,-0.0644
3.1640,-0.0650
3.1680,-0.0456
3.1720,-0.0462
3.1760,-0.0490
3.1800,-0.0161
3.1840,0.0004
3.1880,0.0210
3.1920,0.0294
3.1960,0.0366
3.2000,0.0589
3.2040,0.0834
3.2080,0.0808
3.2120,0.0972
3.2160,0.1032
3.2200,0.1048
3.2240,0.1791
3.2280,0.1496
3.2320,0.1542
3.2360,0.1398
3.2400,0.1668
3.2440,0.1742
3.2480,0.1664
3.2520,0.1606
3.2560,0.1249
3.2600,0.1279
3.2640,0.1222
3.2680,0.1066
3.2720,0.0502
3.2760,0.0687
3.2800,0.0709
3.2840,0.0285
3.2880,0.0385
3.2920,-0.0272
3.2960,-0.0140
3.3000,-0.0574
3.3040,-0.0342
3.3080,-0.0361
3.3120,-0.0650
3.3160,-0.0777
3.3200,-0.0853
3.3240,-0.0948
3.3280,-0.0993
3.3320,-0.1155
3.3360,-0.1294
3.3400,-0.1379
3.3440,-0.1322
3.3480,-0.1503
3.3520,-0.1505
3.3560,-0.1332
3.3600,-0.1173
3.3640,-0.1478
3.3680,-0.1105
3.3720,-0.1396
3.3760,-0.1619
3.3800,-0.1595
3.3840,-0.1221
3.3880,-0.1174
3.3920,-0.1241
3.3960,-0.1369
3.4000,-0.1254
3.4040,-0.1321
3.4080,-0.1489
3.4120,-0.1353
3.4160,-0.1773
3.4200,-0.1539
3.4240,-0.1158
3.4280,-0.1413
3.4320,-0.1396
3.4360,-0.1462
3.4400,-0.1219
3.4440,-0.1316
3.4480,-0.1142
3.4520,-0.1540
3.4560,-0.1721
3.4600,-0.1410
3.4640,-0.1298
3.4680,-0.0998
3.4720,-0.1471
3.4760,-0.1561
3.4800,-0.1323
3.4840,-0.1023
3.4880,-0.1563
3.4920,-0.1523
3.4960,-0.1458
3.5000,-0.1491
3.5040,-0.1496
3.5080,-0.1285
3.5120,-0.1350
3.5160,-0.1496
3.5200,-0.1341
3.5240,-0.1088
3.5280,-0.1277
3.5320,-0.0924
3.5360,-0.1190
3.5400,-0.1659
3.5440,-0.1330
3.5480,-0.1652
3.5520,-0.1514
3.5560,-0.1417
3.5600,-0.1558
3.5640,-0.1332
3.5680,-0.1456
3.5720,-0.1448
3.5760,-0.1395
3.5800,-0.1430
3.5840,-0.1517
3.5880,-0.1521
3.5920,-0.1392
3.5960,-0.1443
3.6000,-0.1413
3.6040,-0.1249
3.6080,-0.1364
3.6120,-0.1240
3.6160,-0.1053
3.6200,-0.1142
3.6240,-0.1293
3.6280,-0.1011
3.6320,-0.1361
3.6360,-0.1255
3.6400,-0.1027
3.6440,-0.0621
3.6480,-0.0556
3.6520,-0.0342
3.6560,-0.0451
3.6600,-0.0318
3.6640,-0.0091
3.6680,-0.0273
3.6720,-0.0339
3.6760,0.0013
3.6800,-0.0271
3.6840,-0.0402
3.6880,-0.0655
3.6920,-0.0725
3.6960,-0.1048
3.7000,-0.1116
3.7040,-0.1026
3.7080,-0.1250
3.7120,-0.1464
3.7160,-0.1519
3.7200,-0.1256
3.7240,-0.1180
3.7280,-0.1360
3.7320,-0.1505
3.7360,-0.1383
3.7400,-0.1451
3.7440,-0.1067
3.7480,-0.1372
3.7520,-0.1384
3.7560,-0.1618
3.7600,-0.1662
3.7640,-0.1237
3.7680,-0.1515
3.7720,-0.1435
3.7760,-0.1907
3.7800,-0.1840
3.7840,-0.2580
3.7880,-0.2361
3.7920,-0.2185
3.7960,-0.1488
3.8000,-0.0896
3.8040,0.0563
3.8080,0.2139
3.8120,0.4326
3.8160,0.6475
3.8200,0.8274
3.8240,0.8546
3.8280,0.7205
3.8320,0.4817
3.8360,0.2310
3.8400,0.0310
3.8440,-0.1851
3.8480,-0.2600
3.8520,-0.3474
3.8560,-0.3734
3.8600,-0.2644
3.8640,-0.2305
3.8680,-0.1769
3.8720,-0.1889
3.8760,-0.1579
3.8800,-0.1403
3.8840,-0.1134
3.8880,-0.1033
3.8920,-0.1162
3.8960,-0.1182
3.9000,-0.1139
3.9040,-0.1203
3.9080,-0.1111
3.9120,-0.1410
3.9160,-0.1273
3.9200,-0.1154
3.9240,-0.0832
3.9280,-0.1192
3.9320,-0.1263
3.9360,-0.1310
3.9400,-0.1062
3.9440,-0.1172
3.9480,-0.1341
3.9520,-0.1366
3.9560,-0.1123
3.9600,-0.1595
3.9640,-0.1066
3.9680,-0.1199
3.9720,-0.1122
3.9760,-0.1085
3.9800,-0.1003
3.9840,-0.0792
3.9880,-0.0915
3.9920,-0.0822
3.9960,-0.0670
4.0000,-0.0679
4.0040,-0.0184
4.0080,-0.0227
4.0120,-0.0285
4.0160,0.0148
4.0200,0.0082
4.0240,0.0495
4.0280,0.0723
4.0320,0.0827
4.0360,0.1063
4.0400,0.0825
4.0440,0.1434
4.0480,0.1501
4.0520,0.1797
4.0560,0.1726
4.0600,0.1626
4.0640,0.2106
4.0680,0.1842
4.0720,0.1797
4.0760,0.1842
4.0800,0.1701
4.0840,0.1840
4.0880,0.1589
4.0920,0.1483
4.0960,0.1283
4.1000,0.1224
4.1040,0.1118
4.1080,0.0880
4.1120,0.0669
4.1160,0.0337
4.1200,0.0204
4.1240,0.0553
4.1280,0.0094
4.1320,-0.0087
4.1360,-0.0065
4.1400,-0.0367
4.1440,-0.0408
4.1480,-0.0488
4.1520,-0.0362
4.1560,-0.0845
4.1600,-0.0860
4.1640,-0.0673
4.1680,-0.0752
4.1720,-0.0914
4.1760,-0.0925
4.1800,-0.1040
4.1840,-0.0866
4.1880,-0.0982
4.1920,-0.1111
4.1960,-0.0978
4.2000,-0.0839
4.2040,-0.0909
4.2080,-0.0798
4.2120,-0.1066
4.2160,-0.1100
4.2200,-0.0989
4.2240,-0.1076
4.2280,-0.0854
4.2320,-0.0845
4.2360,-0.1012
4.2400,-0.1029
4.2440,-0.0721
4.2480,-0.0879
4.2520,-0.0875
4.2560,-0.1103
4.2600,-0.0952
4.2640,-0.0795
4.2680,-0.1004
4.2720,-0.0928
4.2760,-0.1303
4.2800,-0.0632
4.2840,-0.0903
4.2880,-0.0831
4.2920,-0.0825
4.2960,-0.0952
4.3000,-0.0487
4.3040,-0.0657
4.3080,-0.0612
4.3120,-0.0865
4.3160,-0.0934
4.3200,-0.1000
4.3240,-0.0884
4.3280,-0.0732
4.3320,-0.0715
4.3360,-0.0861
4.3400,-0.0664
4.3440,-0.0988
4.3480,-0.0879
4.3520,-0.0741
4.3560,-0.0858
4.3600,-0.0873
4.3640,-0.0861
4.3680,-0.0607
4.3720,-0.0769
4.3760,-0.0898
4.3800,-0.0661
4.3840,-0.0855
4.3880,-0.0677
4.3920,-0.0822
4.3960,-0.0485
4.4000,-0.0769
4.4040,-0.0428
4.4080,-0.0594
4.4120,-0.0695
4.4160,-0.0707
4.4200,-0.0743
4.4240,-0.0564
4.4280,-0.0562
4.4320,-0.0855
4.4360,-0.0802
4.4400,-0.0756
4.4440,-0.0561
4.4480,-0.0570
4.4520,-0.0524
4.4560,-0.0474
4.4600,-0.0546
4.4640,-0.0175
4.4680,-0.0427
4.4720,-0.0264
4.4760,-0.0233
4.4800,-0.0029
4.4840,0.0254
4.4880,0.0178
4.4920,0.0275
4.4960,0.0514
4.5000,0.0647
4.5040,0.0665
4.5080,0.0478
4.5120,0.0712
4.5160,0.0413
4.5200,0.0287
4.5240,0.0391
4.5280,0.0516
4.5320,-0.0001
4.5360,-0.0186
4.5400,0.0025
4.5440,-0.0200
4.5480,-0.0222
4.5520,-0.0164
4.5560,-0.0192
4.5600,-0.0436
4.5640,-0.0299
4.5680,-0.0348
4.5720,-0.0837
4.5760,-0.0548
4.5800,-0.0518
4.5840,-0.0342
4.5880,-0.0234
4.5920,-0.0585
4.5960,-0.0557
4.6000,-0.0411
4.6040,-0.0491
4.6080,-0.0677
4.6120,-0.0277
4.6160,-0.0782
4.6200,-0.1043
4.6240,-0.1227
4.6280,-0.1129
4.6320,-0.1300
4.6360,-0.0745
4.6400,-0.0592
4.6440,0.0336
4.6480,0.1814
4.6520,0.3551
4.6560,0.5985
4.6600,0.8080
4.6640,0.9680
4.6680,0.9517
4.6720,0.7723
4.6760,0.4962
4.6800,0.2814
4.6840,0.0674
4.6880,-0.1048
4.6920,-0.2105
4.6960,-0.2403
4.7000,-0.2001
4.7040,-0.1603
4.7080,-0.0979
4.7120,-0.0590
4.7160,-0.0829
4.7200,-0.0564
4.7240,-0.0070
4.7280,-0.0136
4.7320,-0.0008
4.7360,-0.0597
4.7400,-0.0141
4.7440,-0.0052
4.7480,0.0020
4.7520,-0.0295
4.7560,-0.0353
4.7600,-0.0316
4.7640,-0.0003
4.7680,-0.0301
4.7720,-0.0249
4.7760,-0.0269
4.7800,-0.0044
4.7840,0.0018
4.7880,-0.0133
4.7920,-0.0466
4.7960,-0.0118
4.8000,0.0334
4.8040,0.0178
4.8080,0.0151
4.8120,-0.0048
4.8160,0.0150
4.8200,0.0436
4.8240,0.0173
4.8280,0.0279
4.8320,0.0066
4.8360,0.0252
4.8400,0.0344
4.8440,0.0524
4.8480,0.1055
4.8520,0.0747
4.8560,0.0734
4.8600,0.1246
4.8640,0.1595
4.8680,0.1665
4.8720,0.1784
4.8760,0.1939
4.8800,0.1781
4.8840,0.1958
4.8880,0.2682
4.8920,0.2304
4.8960,0.2582
4.9000,0.2757
4.9040,0.2922
4.9080,0.2916
4.9120,0.2564
4.9160,0.2627
4.9200,0.3097
4.9240,0.2994
4.9280,0.2824
4.9320,0.2758
4.9360,0.2610
4.9400,0.2927
4.9440,0.2435
4.9480,0.2368
4.9520,0.2361
4.9560,0.1956
4.9600,0.2095
4.9640,0.2017
4.9680,0.1631
4.9720,0.1460
4.9760,0.1387
4.9800,0.1200
4.9840,0.1186
4.9880,0.0828
4.9920,0.0943
4.9960,0.0794
5.0000,0.0446
5.0040,0.0734
5.0080,0.0534
5.0120,0.0383
5.0160,0.0118
5.0200,0.0315
5.0240,0.0425
5.0280,0.0464
5.0320,0.0403
5.0360,0.0001
5.0400,0.0187
5.0440,0.0298
5.0480,0.0667
5.0520,0.0046
5.0560,0.0137
5.0600,0.0292
5.0640,0.0149
5.0680,0.0195
5.0720,0.0441
5.0760,0.0021
5.0800,0.0302
5.0840,0.0334
5.0880,0.0575
5.0920,0.0271
5.0960,0.0124
5.1000,0.0341
5.1040,0.0359
5.1080,0.0189
5.1120,0.0331
5.1160,0.0254
5.1200,0.0476
5.1240,0.0326
5.1280,0.0659
5.1320,0.0233
5.1360,0.0068
5.1400,0.0392
5.1440,0.0482
5.1480,0.0233
5.1520,0.0409
5.1560,0.0331
5.1600,0.0227
5.1640,0.0551
5.1680,0.0486
5.1720,0.0534
5.1760,0.0057
5.1800,0.0530
5.1840,0.0489
5.1880,0.0562
5.1920,0.0275
5.1960,0.0213
5.2000,0.0680
5.2040,0.0619
5.2080,0.0687
5.2120,0.0503
5.2160,0.0687
5.2200,0.0597
5.2240,0.0576
5.2280,0.0606
5.2320,0.0242
5.2360,0.0571
5.2400,0.0529
5.2440,0.0434
5.2480,0.0802
5.2520,0.0528
5.2560,0.0518
5.2600,0.0653
5.2640,0.0502
5.2680,0.0778
5.2720,0.0783
5.2760,0.0425
5.2800,0.0359
5.2840,0.0704
5.2880,0.0828
5.2920,0.0509
5.2960,0.0467
5.3000,0.0698
5.3040,0.0529
5.3080,0.0888
5.3120,0.0465
5.3160,0.0415
5.3200,0.0440
5.3240,0.0857
5.3280,0.0888
5.3320,0.0805
5.3360,0.0634
5.3400,0.0911
5.3440,0.0931
5.3480,0.1211
5.3520,0.1165
5.3560,0.1308
5.3600,0.1230
5.3640,0.1683
5.3680,0.1867
5.3720,0.1711
5.3760,0.1987
5.3800,0.1792
5.3840,0.1826
5.3880,0.2095
5.3920,0.1533
5.3960,0.1448
5.4000,0.1124
5.4040,0.1425
5.4080,0.1147
5.4120,0.1043
5.4160,0.1098
5.4200,0.1130
5.4240,0.1189
5.4280,0.1049
5.4320,0.0827
5.4360,0.0730
5.4400,0.0889
5.4440,0.1105
5.4480,0.0735
5.4520,0.0538
5.4560,0.0748
5.4600,0.1214
5.4640,0.0762
5.4680,0.0933
5.4720,0.0545
5.4760,0.0515
5.4800,0.0786
5.4840,0.0769
5.4880,0.0732
5.4920,0.0371
5.4960,0.0001
5.5000,-0.0279
5.5040,-0.0218
5.5080,0.0166
5.5120,0.0597
5.5160,0.1151
5.5200,0.2729
5.5240,0.4585
5.5280,0.6850
5.5320,0.9204
5.5360,1.0323
5.5400,1.0576
5.5440,0.8878
5.5480,0.6493
5.5520,0.4121
5.5560,0.1773
5.5600,0.0047
5.5640,-0.1130
5.5680,-0.1123
5.5720,-0.1202
5.5760,-0.0784
5.5800,0.0037
5.5840,0.0266
5.5880,0.0651
5.5920,0.0896
5.5960,0.0641
5.6000,0.0749
5.6040,0.1260
5.6080,0.1050
5.6120,0.0887
5.6160,0.0809
5.6200,0.1272
5.6240,0.1082
5.6280,0.1008
5.6320,0.0847
5.6360,0.0880
5.6400,0.0889
5.6440,0.1181
5.6480,0.0975
5.6520,0.0547
5.6560,0.0896
5.6600,0.0695
5.6640,0.1259
5.6680,0.0781
5.6720,0.0817
5.6760,0.0941
5.6800,0.0815
5.6840,0.1291
5.6880,0.1077
5.6920,0.0836
5.6960,0.0949
5.7000,0.1539
5.7040,0.1374
5.7080,0.1376
5.7120,0.1559
5.7160,0.1436
5.7200,0.1802
5.7240,0.1672
5.7280,0.1864
5.7320,0.2279
5.7360,0.2217
5.7400,0.2428
5.7440,0.2581
5.7480,0.2856
5.7520,0.2819
5.7560,0.3094
5.7600,0.3095
5.7640,0.3358
5.7680,0.3622
5.7720,0.3718
5.7760,0.3756
5.7800,0.3864
5.7840,0.4082
5.7880,0.4011
5.7920,0.3829
5.7960,0.3838
5.8000,0.3996
5.8040,0.3715
5.8080,0.3895
5.8120,0.3569
5.8160,0.3528
5.8200,0.3332
5.8240,0.3346
5.8280,0.3141
5.8320,0.2611
5.8360,0.2616
5.8400,0.2689
5.8440,0.2495
5.8480,0.2156
5.8520,0.2217
5.8560,0.1648
5.8600,0.1971
5.8640,0.1824
5.8680,0.1672
5.8720,0.1425
5.8760,0.1217
5.8800,0.1429
5.8840,0.1514
5.8880,0.1409
5.8920,0.1182
5.8960,0.1140
5.9000,0.1063
5.9040,0.1173
5.9080,0.1303
5.9120,0.0836
5.9160,0.0829
5.9200,0.1022
5.9240,0.1158
5.9280,0.1185
5.9320,0.0796
5.9360,0.1204
5.9400,0.0965
5.9440,0.1288
5.9480,0.1023
5.9520,0.0863
5.9560,0.1107
5.9600,0.1160
5.9640,0.0914
5.9680,0.1238
5.9720,0.0777
5.9760,0.0861
5.9800,0.1118
5.9840,0.1204
5.9880,0.1092
5.9920,0.0802
5.9960,0.1104
6.0000,0.1069
6.0040,0.1241
6.0080,0.1223
6.0120,0.0991
6.0160,0.1232
6.0200,0.1087
6.0240,0.1324
6.0280,0.0962
6.0320,0.0799
6.0360,0.0867
6.0400,0.1114
6.0440,0.1161
6.0480,0.1500
6.0520,0.0856
6.0560,0.0696
6.0600,0.1046
6.0640,0.1187
6.0680,0.0811
6.0720,0.0870
6.0760,0.1017
6.0800,0.0967
6.0840,0.1307
6.0880,0.0865
6.0920,0.0803
6.0960,0.0894
6.1000,0.0899
6.1040,0.1346
6.1080,0.1122
6.1120,0.1083
6.1160,0.1376
6.1200,0.0890
6.1240,0.1195
6.1280,0.1032
6.1320,0.0967
6.1360,0.0927
6.1400,0.0980
6.1440,0.1274
6.1480,0.1329
6.1520,0.1112
6.1560,0.0938
6.1600,0.1074
6.1640,0.1413
6.1680,0.0930
6.1720,0.1107
6.1760,0.1180
6.1800,0.1186
6.1840,0.1257
6.1880,0.1016
6.1920,0.0881
6.1960,0.0683
6.2000,0.0790
6.2040,0.1092
6.2080,0.0865
6.2120,0.1189
6.2160,0.1070
6.2200,0.1196
6.2240,0.1148
6.2280,0.1516
6.2320,0.1135
6.2360,0.1536
6.2400,0.1749
6.2440,0.1889
6.2480,0.2162
6.2520,0.1990
6.2560,0.2231
6.2600,0.2233
6.2640,0.2340
6.2680,0.2187
6.2720,0.2246
6.2760,0.1849
6.2800,0.2189
6.2840,0.1857
6.2880,0.1970
6.2920,0.1533
6.2960,0.1213
6.3000,0.1253
6.3040,0.1156
6.3080,0.1098
6.3120,0.1140
6.3160,0.1177
6.3200,0.1106
6.3240,0.1187
6.3280,0.1004
6.3320,0.0999
6.3360,0.1085
6.3400,0.1175
6.3440,0.1039
6.3480,0.1049
6.3520,0.1027
6.3560,0.0898
6.3600,0.0883
6.3640,0.1018
6.3680,0.1089
6.3720,0.1091
6.3760,0.0522
6.3800,0.0128
6.3840,0.0086
6.3880,0.0114
6.3920,0.0268
6.3960,0.0682
6.4000,0.1630
6.4040,0.2821
6.4080,0.4590
6.4120,0.6741
6.4160,0.9023
6.4200,1.0582
6.4240,1.0966
6.4280,0.9739
6.4320,0.7178
6.4360,0.4433
6.4400,0.2093
6.4440,0.0364
6.4480,-0.0492
6.4520,-0.1531
6.4560,-0.1286
6.4600,-0.0418
6.4640,0.0112
6.4680,0.0373
6.4720,0.0642
6.4760,0.0924
6.4800,0.0904
6.4840,0.1179
6.4880,0.1041
6.4920,0.0978
6.4960,0.1154
6.5000,0.0873
6.5040,0.1186
6.5080,0.0763
6.5120,0.0974
6.5160,0.0860
6.5200,0.1089
6.5240,0.1269
6.5280,0.1018
6.5320,0.1197
6.5360,0.0622
6.5400,0.0997
6.5440,0.1232
6.5480,0.1201
6.5520,0.0843
6.5560,0.0810
6.5600,0.1188
6.5640,0.0853
6.5680,0.0930
6.5720,0.1101
6.5760,0.0972
6.5800,0.1080
6.5840,0.1422
6.5880,0.1312
6.5920,0.1254
6.5960,0.1085
6.6000,0.1741
6.6040,0.1796
6.6080,0.1907
6.6120,0.1843
6.6160,0.1930
6.6200,0.2217
6.6240,0.2423
6.6280,0.2741
6.6320,0.2699
6.6360,0.2927
6.6400,0.3239
6.6440,0.3581
6.6480,0.3161
6.6520,0.3364
6.6560,0.3631
6.6600,0.3762
6.6640,0.3796
6.6680,0.3867
6.6720,0.3938
6.6760,0.3648
6.6800,0.3754
6.6840,0.3927
6.6880,0.3793
6.6920,0.3397
6.6960,0.3269
6.7000,0.3284
6.7040,0.3207
6.7080,0.2923
6.7120,0.2608
6.7160,0.2429
6.7200,0.2438
6.7240,0.2387
6.7280,0.2073
6.7320,0.1716
6.7360,0.1686
6.7400,0.1682
6.7440,0.1582
6.7480,0.1792
6.7520,0.0989
6.7560,0.1132
6.7600,0.1058
6.7640,0.1310
6.7680,0.1038
6.7720,0.1028
6.7760,0.0573
6.7800,0.0864
6.7840,0.0999
6.7880,0.0686
6.7920,0.0685
6.7960,0.0819
6.8000,0.0647
6.8040,0.1031
6.8080,0.1122
6.8120,0.0854
6.8160,0.0385
6.8200,0.0568
6.8240,0.0913
6.8280,0.0827
6.8320,0.0739
6.8360,0.0531
6.8400,0.0526
6.8440,0.0774
6.8480,0.0921
6.8520,0.0406
6.8560,0.0327
6.8600,0.0543
6.8640,0.0530
6.8680,0.0533
6.8720,0.0528
6.8760,0.0544
6.8800,0.0619
6.8840,0.0654
6.8880,0.0648
6.8920,0.0928
6.8960,0.0517
6.9000,0.0417
6.9040,0.0646
6.9080,0.0725
6.9120,0.0581
6.9160,0.0440
6.9200,0.0583
6.9240,0.1088
6.9280,0.0785
6.9320,0.0690
6.9360,0.0356
6.9400,0.0480
6.9440,0.0653
6.9480,0.0498
6.9520,0.0650
6.9560,0.0291
6.9600,0.0704
6.9640,0.0671
6.9680,0.0710
6.9720,0.0737
6.9760,0.0331
6.9800,0.0841
6.9840,0.0953
6.9880,0.0775
6.9920,0.0213
6.9960,0.0289
7.0000,0.0415
7.0040,0.0824
7.0080,0.0750
7.0120,0.0386
7.0160,0.0638
7.0200,0.0560
7.0240,0.0741
7.0280,0.0597
7.0320,0.0483
7.0360,0.0313
7.0400,0.0663
7.0440,0.0644
7.0480,0.0697
7.0520,0.0314
7.0560,0.0425
7.0600,0.0646
7.0640,0.0629
7.0680,0.0785
7.0720,0.0491
7.0760,0.0391
7.0800,0.0570
7.0840,0.0819
7.0880,0.0968
7.0920,0.0992
7.0960,0.0860
7.1000,0.0996
7.1040,0.0843
7.1080,0.0961
7.1120,0.1524
7.1160,0.1350
7.1200,0.1653
7.1240,0.1699
7.1280,0.1819
7.1320,0.1520
7.1360,0.1457
7.1400,0.1388
7.1440,0.1408
7.1480,0.1451
7.1520,0.1198
7.1560,0.0999
7.1600,0.0913
7.1640,0.0682
7.1680,0.1009
7.1720,0.0664
7.1760,0.0158
7.1800,0.0603
7.1840,0.0598
7.1880,0.0352
7.1920,0.0400
7.1960,0.0319
7.2000,0.0557
7.2040,0.0594
7.2080,0.0498
7.2120,0.0500
7.2160,0.0353
7.2200,0.0390
7.2240,0.0344
7.2280,0.0615
7.2320,0.0168
7.2360,-0.0078
7.2400,-0.0206
7.2440,-0.0393
7.2480,-0.0614
7.2520,-0.0459
7.2560,-0.0321
7.2600,0.0531
7.2640,0.1490
7.2680,0.2744
7.2720,0.4572
7.2760,0.6909
7.2800,0.9372
7.2840,1.0468
7.2880,0.9891
7.2920,0.8088
7.2960,0.5750
7.3000,0.2973
7.3040,0.1022
7.3080,-0.0650
7.3120,-0.1601
7.3160,-0.1825
7.3200,-0.1610
7.3240,-0.0859
7.3280,-0.0519
7.3320,-0.0202
7.3360,-0.0200
7.3400,0.0452
7.3440,0.0339
7.3480,0.0325
7.3520,0.0349
7.3560,0.0259
7.3600,0.0219
7.3640,0.0424
7.3680,0.0548
7.3720,0.0117
7.3760,0.0122
7.3800,0.0257
7.3840,0.0323
7.3880,0.0294
7.3920,-0.0033
7.3960,0.0440
7.4000,0.0211
7.4040,0.0372
7.4080,0.0353
7.4120,0.0402
7.4160,0.0184
7.4200,0.0199
7.4240,0.0430
7.4280,0.0453
7.4320,0.0488
7.4360,0.0245
7.4400,0.0620
7.4440,0.0770
7.4480,0.0633
7.4520,0.0725
7.4560,0.0702
7.4600,0.0787
7.4640,0.1096
7.4680,0.1086
7.4720,0.1511
7.4760,0.1660
7.4800,0.1400
7.4840,0.1903
7.4880,0.1918
7.4920,0.2241
7.4960,0.2017
7.5000,0.2726
7.5040,0.2827
7.5080,0.2886
7.5120,0.2821
7.5160,0.2688
7.5200,0.3073
7.5240,0.3094
7.5280,0.3258
7.5320,0.3070
7.5360,0.2907
7.5400,0.3154
7.5440,0.3155
7.5480,0.2952
7.5520,0.2834
7.5560,0.2560
7.5600,0.2392
7.5640,0.2197
7.5680,0.2189
7.5720,0.1762
7.5760,0.1454
7.5800,0.1580
7.5840,0.1326
7.5880,0.1471
7.5920,0.0985
7.5960,0.0803
7.6000,0.0658
7.6040,0.0674
7.6080,0.0554
7.6120,0.0383
7.6160,0.0181
7.6200,0.0350
7.6240,0.0308
7.6280,0.0152
7.6320,0.0143
7.6360,-0.0128
7.6400,0.0205
7.6440,0.0340
7.6480,0.0134
7.6520,0.0130
7.6560,0.0002
7.6600,-0.0170
7.6640,0.0354
7.6680,-0.0080
7.6720,-0.0092
7.6760,-0.0215
7.6800,-0.0133
7.6840,0.0132
7.6880,-0.0085
7.6920,-0.0040
7.6960,-0.0290
7.7000,0.0058
7.7040,0.0167
7.7080,-0.0128
7.7120,-0.0172
7.7160,-0.0198
7.7200,0.0182
7.7240,-0.0100
7.7280,0.0013
7.7320,-0.0251
7.7360,-0.0272
7.7400,-0.0300
7.7440,0.0164
7.7480,0.0050
7.7520,0.0072
7.7560,-0.0256
7.7600,0.0060
7.7640,0.0057
7.7680,0.0113
7.7720,-0.0307
7.7760,-0.0163
7.7800,-0.0088
7.7840,-0.0054
7.7880,-0.0204
7.7920,-0.0221
7.7960,0.0064
7.8000,-0.0125
7.8040,0.0021
7.8080,-0.0316
7.8120,-0.0161
7.8160,-0.0118
7.8200,-0.0102
7.8240,-0.0231
7.8280,0.0132
7.8320,-0.0092
7.8360,-0.0133
7.8400,-0.0163
7.8440,0.0017
7.8480,-0.0188
7.8520,-0.0247
7.8560,-0.0407
7.8600,0.0140
7.8640,-0.0073
7.8680,-0.0253
7.8720,-0.0077
7.8760,0.0082
7.8800,-0.0294
7.8840,-0.0128
7.8880,0.0141
7.8920,-0.0216
7.8960,-0.0441
7.9000,-0.0178
7.9040,-0.0123
7.9080,-0.0018
7.9120,-0.0050
7.9160,-0.0252
7.9200,0.0098
7.9240,0.0282
7.9280,0.0549
7.9320,0.0408
7.9360,0.0721
7.9400,0.0653
7.9440,0.0795
7.9480,0.1197
7.9520,0.0603
7.9560,0.0874
7.9600,0.1064
7.9640,0.1179
7.9680,0.1064
7.9720,0.0867
7.9760,0.0375
7.9800,0.0842
7.9840,0.0472
7.9880,0.0370
7.9920,0.0155
7.9960,-0.0043
8.0000,-0.0021
8.0040,0.0081
8.0080,0.0066
8.0120,-0.0202
8.0160,-0.0490
8.0200,-0.0268
8.0240,0.0094
8.0280,-0.0223
8.0320,-0.0251
8.0360,-0.0159
8.0400,-0.0390
8.0440,-0.0264
8.0480,0.0010
8.0520,-0.0093
8.0560,-0.0659
8.0600,-0.0214
8.0640,-0.0204
8.0680,-0.0394
8.0720,-0.0942
8.0760,-0.1134
8.0800,-0.1308
8.0840,-0.0855
8.0880,-0.0676
8.0920,-0.0487
8.0960,0.0481
8.1000,0.2108
8.1040,0.4144
8.1080,0.6353
8.1120,0.8813
8.1160,0.9383
8.1200,0.9403
8.1240,0.7772
8.1280,0.4972
8.1320,0.2503
8.1360,0.0385
8.1400,-0.0989
8.1440,-0.1852
8.1480,-0.2152
8.1520,-0.2278
8.1560,-0.1695
8.1600,-0.1045
8.1640,-0.0434
8.1680,-0.0184
8.1720,-0.0354
8.1760,-0.0505
8.1800,-0.0177
8.1840,-0.0230
8.1880,-0.0278
8.1920,-0.0478
8.1960,-0.0385
8.2000,-0.0274
8.2040,-0.0673
8.2080,-0.0409
8.2120,-0.0369
8.2160,-0.0464
8.2200,-0.0139
8.2240,-0.0112
8.2280,-0.0289
8.2320,-0.0253
8.2360,-0.0346
8.2400,-0.0164
8.2440,-0.0193
8.2480,-0.0235
8.2520,-0.0439
8.2560,-0.0345
8.2600,-0.0248
8.2640,-0.0183
8.2680,-0.0036
8.2720,-0.0180
8.2760,-0.0164
8.2800,0.0256
8.2840,0.0039
8.2880,0.0493
8.2920,0.0184
8.2960,0.0291
8.3000,0.0283
8.3040,0.0842
8.3080,0.1003
8.3120,0.1035
8.3160,0.0942
8.3200,0.1487
8.3240,0.1672
8.3280,0.1379
8.3320,0.1837
8.3360,0.1764
8.3400,0.1810
8.3440,0.2407
8.3480,0.2114
8.3520,0.2669
8.3560,0.2559
8.3600,0.2677
8.3640,0.2494
8.3680,0.2530
8.3720,0.2481
8.3760,0.2575
8.3800,0.2415
8.3840,0.2481
8.3880,0.2261
8.3920,0.2236
8.3960,0.1983
8.4000,0.1706
8.4040,0.1726
8.4080,0.1493
8.4120,0.1391
8.4160,0.1301
8.4200,0.0942
8.4240,0.0804
8.4280,0.0853
8.4320,0.0590
8.4360,0.0561
8.4400,0.0210
8.4440,0.0379
8.4480,0.0069
8.4520,-0.0109
8.4560,-0.0087
8.4600,-0.0205
8.4640,0.0128
8.4680,-0.0218
8.4720,-0.0248
8.4760,-0.0370
8.4800,-0.0074
8.4840,-0.0138
8.4880,-0.0229
8.4920,-0.0118
8.4960,-0.0709
8.5000,-0.0169
8.5040,-0.0111
8.5080,-0.0158
8.5120,-0.0372
8.5160,-0.0498
8.5200,-0.0491
8.5240,-0.0377
8.5280,-0.0460
8.5320,-0.0603
8.5360,-0.0566
8.5400,-0.0410
8.5440,-0.0156
8.5480,-0.0223
8.5520,-0.0393
8.5560,-0.0539
8.5600,-0.0137
8.5640,-0.0270
8.5680,-0.0131
8.5720,-0.0336
8.5760,-0.0651
8.5800,-0.0221
8.5840,-0.0353
8.5880,-0.0420
8.5920,-0.0630
8.5960,-0.0578
8.6000,-0.0319
8.6040,-0.0201
8.6080,-0.0252
8.6120,-0.0356
8.6160,-0.0167
8.6200,-0.0485
8.6240,-0.0368
8.6280,-0.0390
8.6320,-0.0241
8.6360,-0.0319
8.6400,-0.0440
8.6440,-0.0519
8.6480,-0.0438
8.6520,-0.0354
8.6560,-0.0461
8.6600,-0.0378
8.6640,-0.0385
8.6680,-0.0451
8.6720,-0.0471
8.6760,-0.0358
8.6800,-0.0675
8.6840,-0.0462
8.6880,-0.0641
8.6920,-0.0454
8.6960,-0.0447
8.7000,-0.0305
8.7040,-0.0393
8.7080,-0.0422
8.7120,-0.0365
8.7160,-0.0718
8.7200,-0.0332
8.7240,-0.0340
8.7280,-0.0161
8.7320,-0.0426
8.7360,-0.0353
8.7400,-0.0207
8.7440,-0.0447
8.7480,-0.0537
8.7520,-0.0268
8.7560,-0.0401
8.7600,-0.0192
8.7640,-0.0411
8.7680,-0.0547
8.7720,-0.0231
8.7760,-0.0273
8.7800,-0.0059
8.7840,0.0198
8.7880,0.0207
8.7920,0.0097
8.7960,0.0307
8.8000,0.0539
8.8040,0.0817
8.8080,0.0783
8.8120,0.0560
8.8160,0.0575
8.8200,0.0651
8.8240,0.0870
8.8280,0.0764
8.8320,0.0509
8.8360,0.0424
8.8400,0.0221
8.8440,0.0510
8.8480,0.0392
8.8520,-0.0056
8.8560,-0.0423
8.8600,-0.0316
8.8640,-0.0361
8.8680,-0.0464
8.8720,-0.0531
8.8760,-0.0248
8.8800,-0.0351
8.8840,-0.0126
8.8880,-0.0489
8.8920,-0.0570
8.8960,-0.0478
8.9000,-0.0368
8.9040,-0.0072
8.9080,-0.0678
8.9120,-0.0441
8.9160,-0.0383
8.9200,-0.0559
8.9240,-0.0546
8.9280,-0.0542
8.9320,-0.0804
8.9360,-0.1340
8.9400,-0.1579
8.9440,-0.1368
8.9480,-0.0847
8.9520,-0.0563
8.9560,0.0489
8.9600,0.2126
8.9640,0.4063
8.9680,0.6323
8.9720,0.8633
8.9760,0.9228
8.9800,0.8830
8.9840,0.7308
8.9880,0.4685
8.9920,0.2062
8.9960,-0.0107
9.0000,-0.1187
9.0040,-0.2138
9.0080,-0.2562
9.0120,-0.2473
9.0160,-0.1535
9.0200,-0.1230
9.0240,-0.0914
9.0280,-0.0610
9.0320,-0.0568
9.0360,-0.0503
9.0400,-0.0208
9.0440,-0.0227
9.0480,-0.0142
9.0520,-0.0297
9.0560,-0.0662
9.0600,-0.0337
9.0640,-0.0511
9.0680,-0.0403
9.0720,-0.0283
9.0760,-0.0707
9.0800,-0.0418
9.0840,-0.0344
9.0880,-0.0272
9.0920,-0.0481
9.0960,-0.0780
9.1000,-0.0587
9.1040,-0.0220
9.1080,-0.0356
9.1120,-0.0553
9.1160,-0.0131
9.1200,-0.0533
9.1240,-0.0308
9.1280,-0.0296
9.1320,-0.0563
9.1360,-0.0309
9.1400,0.0017
9.1440,-0.0243
9.1480,-0.0026
9.1520,0.0187
9.1560,0.0169
9.1600,0.0522
9.1640,0.0501
9.1680,0.0566
9.1720,0.0731
9.1760,0.0826
9.1800,0.0983
9.1840,0.1286
9.1880,0.1344
9.1920,0.1647
9.1960,0.1694
9.2000,0.1671
9.2040,0.2076
9.2080,0.2536
9.2120,0.2324
9.2160,0.2453
9.2200,0.2167
9.2240,0.2569
9.2280,0.2518
9.2320,0.2588
9.2360,0.2438
9.2400,0.2408
9.2440,0.2796
9.2480,0.2248
9.2520,0.1786
9.2560,0.1729
9.2600,0.1808
9.2640,0.1712
9.2680,0.1427
9.2720,0.1374
9.2760,0.1090
9.2800,0.1091
9.2840,0.0999
9.2880,0.0848
9.2920,0.0136
9.2960,0.0147
9.3000,0.0230
9.3040,0.0168
9.3080,0.0001
9.3120,0.0217
9.3160,-0.0354
9.3200,-0.0302
9.3240,0.0147
9.3280,-0.0230
9.3320,-0.0774
9.3360,-0.0390
9.3400,-0.0067
9.3440,-0.0298
9.3480,-0.0189
9.3520,-0.0429
9.3560,-0.0615
9.3600,-0.0403
9.3640,-0.0254
9.3680,-0.0263
9.3720,-0.0444
9.3760,-0.0975
9.3800,-0.0079
9.3840,-0.0245
9.3880,-0.0676
9.3920,-0.0500
9.3960,-0.0755
9.4000,-0.0372
9.4040,-0.0462
9.4080,-0.0455
9.4120,-0.0437
9.4160,-0.0670
9.4200,-0.0300
9.4240,-0.0309
9.4280,-0.0567
9.4320,-0.0490
9.4360,-0.0799
9.4400,-0.0523
9.4440,-0.0223
9.4480,-0.0441
9.4520,-0.0350
9.4560,-0.0370
9.4600,-0.0372
9.4640,-0.0100
9.4680,-0.0584
9.4720,-0.0564
9.4760,-0.0663
9.4800,-0.0862
9.4840,-0.0203
9.4880,-0.0387
9.4920,-0.0556
9.4960,-0.0578
9.5000,-0.0626
9.5040,-0.0640
9.5080,-0.0701
9.5120,-0.0525
9.5160,-0.0791
9.5200,-0.0157
9.5240,0.0021
9.5280,-0.0403
9.5320,-0.0416
9.5360,-0.0575
9.5400,-0.0675
9.5440,-0.0428
9.5480,-0.0404
9.5520,-0.0316
9.5560,-0.0782
9.5600,-0.0416
9.5640,-0.0164
9.5680,-0.0475
9.5720,-0.0619
9.5760,-0.0484
9.5800,-0.0454
9.5840,-0.0493
9.5880,-0.0501
9.5920,-0.0294
9.5960,-0.0407
9.6000,-0.0451
9.6040,-0.0273
9.6080,-0.0399
9.6120,-0.0520
9.6160,-0.0658
9.6200,-0.0442
9.6240,-0.0350
9.6280,-0.0230
9.6320,-0.0618
9.6360,-0.0510
9.6400,-0.0641
9.6440,0.0058
9.6480,-0.0350
9.6520,-0.0339
9.6560,-0.0416
9.6600,-0.0028
9.6640,0.0248
9.6680,0.0171
9.6720,0.0245
9.6760,0.0405
9.6800,0.0633
9.6840,0.0560
9.6880,0.0698
9.6920,0.0575
9.6960,0.0594
9.7000,0.0474
9.7040,0.0407
9.7080,0.0316
9.7120,0.0210
9.7160,-0.0108
9.7200,-0.0191
9.7240,-0.0257
9.7280,-0.0222
9.7320,-0.0247
9.7360,-0.0440
9.7400,-0.0101
9.7440,-0.0387
9.7480,-0.0171
9.7520,-0.0363
9.7560,-0.0602
9.7600,-0.0502
9.7640,-0.0315
9.7680,-0.0626
9.7720,-0.0618
9.7760,-0.0535
9.7800,-0.0487
9.7840,-0.0431
9.7880,-0.0615
9.7920,-0.0735
9.7960,-0.0870
9.8000,-0.0981
9.8040,-0.0770
9.8080,-0.1452
9.8120,-0.1530
9.8160,-0.1286
9.8200,-0.1050
9.8240,-0.0093
9.8280,0.1063
9.8320,0.2548
9.8360,0.4752
9.8400,0.7195
9.8440,0.8624
9.8480,0.9476
9.8520,0.8427
9.8560,0.6373
9.8600,0.3554
9.8640,0.1279
9.8680,-0.0604
9.8720,-0.1999
9.8760,-0.2676
9.8800,-0.2899
9.8840,-0.1970
9.8880,-0.1537
9.8920,-0.1211
9.8960,-0.0844
9.9000,-0.0668
9.9040,-0.0452
9.9080,-0.0794
9.9120,-0.0445
9.9160,-0.0765
9.9200,-0.0637
9.9240,-0.0477
9.9280,-0.0453
9.9320,-0.0543
9.9360,-0.0457
9.9400,-0.0640
9.9440,-0.0510
9.9480,-0.0609
9.9520,-0.0587
9.9560,-0.0587
9.9600,-0.0640
9.9640,-0.0424
9.9680,-0.0516
9.9720,-0.0384
9.9760,-0.0332
9.9800,-0.0595
9.9840,-0.0545
9.9880,-0.0448
9.9920,-0.0394
9.9960,-0.0487
10.0000,-0.0381
10.0040,-0.0206
10.0080,-0.0160
10.0120,-0.0229
10.0160,-0.0068
10.0200,0.0156
10.0240,-0.0123
10.0280,0.0463
10.0320,0.0322
10.0360,0.0110
10.0400,0.0563
10.0440,0.0551
10.0480,0.1009
10.0520,0.1009
10.0560,0.1150
10.0600,0.1644
10.0640,0.1647
10.0680,0.1981
10.0720,0.1970
10.0760,0.1825
10.0800,0.2373
10.0840,0.2326
10.0880,0.2355
10.0920,0.2449
10.0960,0.2367
10.1000,0.2312
10.1040,0.2577
10.1080,0.2249
10.1120,0.2381
10.1160,0.2095
10.1200,0.2161
10.1240,0.2080
10.1280,0.1580
10.1320,0.1542
10.1360,0.1370
10.1400,0.1424
10.1440,0.1200
10.1480,0.0917
10.1520,0.0780
10.1560,0.0600
10.1600,0.0443
10.1640,0.0524
10.1680,0.0089
10.1720,-0.0069
10.1760,-0.0259
10.1800,-0.0115
10.1840,-0.0184
10.1880,0.0053
10.1920,-0.0337
10.1960,-0.0275
10.2000,-0.0130
10.2040,-0.0254
10.2080,-0.0433
10.2120,-0.0584
10.2160,-0.0473
10.2200,-0.0441
10.2240,-0.0241
10.2280,-0.0175
10.2320,-0.0722
10.2360,-0.0790
10.2400,-0.0622
10.2440,-0.0435
10.2480,-0.0421
10.2520,-0.0660
10.2560,-0.0627
10.2600,-0.0355
10.2640,-0.0590
10.2680,-0.0455
10.2720,-0.0367
10.2760,-0.0459
10.2800,-0.0439
10.2840,-0.0181
10.2880,-0.0650
10.2920,-0.0693
10.2960,-0.0853
10.3000,-0.0753
10.3040,-0.0358
10.3080,-0.0562
10.3120,-0.0809
10.3160,-0.0577
10.3200,-0.0562
10.3240,-0.0315
10.3280,-0.0421
10.3320,-0.0352
10.3360,-0.0670
10.3400,-0.0429
10.3440,-0.0297
10.3480,-0.0239
10.3520,-0.0545
10.3560,-0.0407
10.3600,-0.0540
10.3640,-0.0539
10.3680,-0.0528
10.3720,-0.0664
10.3760,-0.0647
10.3800,-0.0498
10.3840,-0.0770
10.3880,-0.0487
10.3920,-0.0124
10.3960,-0.0904
10.4000,-0.0559
10.4040,-0.0417
10.4080,-0.0567
10.4120,-0.0762
10.4160,-0.0689
10.4200,-0.0519
10.4240,-0.0415
10.4280,-0.0472
10.4320,-0.0339
10.4360,-0.0334
10.4400,-0.0477
10.4440,-0.0371
10.4480,-0.0468
10.4520,-0.0431
10.4560,-0.0487
10.4600,-0.0480
10.4640,-0.0156
10.4680,-0.0556
10.4720,-0.0432
10.4760,-0.0567
10.4800,-0.0687
10.4840,-0.0248
10.4880,-0.0322
10.4920,-0.0398
10.4960,-0.0898
10.5000,-0.0547
10.5040,-0.0702
10.5080,-0.0322
10.5120,-0.0427
10.5160,-0.0625
10.5200,-0.0306
10.5240,-0.0170
10.5280,-0.0302
10.5320,-0.0149
10.5360,-0.0459
10.5400,0.0398
10.5440,0.0655
10.5480,0.0670
10.5520,0.0292
10.5560,0.0399
10.5600,0.0450
10.5640,0.0807
10.5680,0.0916
10.5720,0.0563
10.5760,0.0223
10.5800,0.0478
10.5840,0.0499
10.5880,0.0084
10.5920,-0.0390
10.5960,-0.0356
10.6000,0.0060
10.6040,-0.0366
10.6080,-0.0351
10.6120,-0.0429
10.6160,-0.0431
10.6200,-0.0205
10.6240,-0.0163
10.6280,-0.0436
10.6320,-0.0427
10.6360,-0.0813
10.6400,-0.0552
10.6440,-0.0241
10.6480,-0.0433
10.6520,-0.0675
10.6560,-0.0620
10.6600,-0.0382
10.6640,-0.0683
10.6680,-0.0542
10.6720,-0.1091
10.6760,-0.0886
10.6800,-0.1362
10.6840,-0.1451
10.6880,-0.1329
10.6920,-0.0966
10.6960,-0.0541
10.7000,0.0610
10.7040,0.2323
10.7080,0.4272
10.7120,0.6494
10.7160,0.8437
10.7200,0.9670
10.7240,0.8906
10.7280,0.7028
10.7320,0.3743
10.7360,0.1649
10.7400,-0.0079
10.7440,-0.1294
10.7480,-0.2475
10.7520,-0.2684
10.7560,-0.2283
10.7600,-0.1563
10.7640,-0.1065
10.7680,-0.0809
10.7720,-0.0627
10.7760,-0.0532
10.7800,-0.0596
10.7840,0.0028
10.7880,-0.0281
10.7920,-0.0647
10.7960,-0.0314
10.8000,-0.0542
10.8040,-0.0379
10.8080,-0.0638
10.8120,-0.0151
10.8160,-0.0391
10.8200,-0.0527
10.8240,-0.0489
10.8280,-0.0571
10.8320,-0.0450
10.8360,-0.0448
10.8400,-0.0129
10.8440,-0.0483
10.8480,-0.0199
10.8520,-0.0461
10.8560,-0.0389
10.8600,-0.0396
10.8640,-0.0335
10.8680,-0.0378
10.8720,-0.0463
10.8760,-0.0092
10.8800,-0.0369
10.8840,0.0084
10.8880,0.0042
10.8920,0.0168
10.8960,0.0079
10.9000,0.0339
10.9040,0.0602
10.9080,0.0678
10.9120,0.0543
10.9160,0.0618
10.9200,0.1108
10.9240,0.1703
10.9280,0.1380
10.9320,0.1426
10.9360,0.1417
10.9400,0.1973
10.9440,0.2097
10.9480,0.2228
10.9520,0.2332
10.9560,0.2366
10.9600,0.2501
10.9640,0.2537
10.9680,0.2525
10.9720,0.2557
10.9760,0.2552
10.9800,0.2555
10.9840,0.2561
10.9880,0.2555
10.9920,0.2053
10.9960,0.1952
11.0000,0.1898
11.0040,0.2043
11.0080,0.1430
11.0120,0.1417
11.0160,0.1174
11.0200,0.0960
11.0240,0.0869
11.0280,0.0878
11.0320,0.0552
11.0360,0.0344
11.0400,0.0246
11.0440,0.0515
11.0480,0.0567
11.0520,-0.0100
11.0560,0.0071
11.0600,-0.0204
11.0640,-0.0071
11.0680,-0.0239
11.0720,-0.0260
11.0760,-0.0461
11.0800,-0.0342
11.0840,-0.0149
11.0880,-0.0146
11.0920,-0.0390
11.0960,-0.0333
11.1000,-0.0480
11.1040,-0.0226
11.1080,-0.0130
11.1120,-0.0161
11.1160,-0.0277
11.1200,-0.0388
11.1240,-0.0361
11.1280,-0.0239
11.1320,-0.0421
11.1360,-0.0373
11.1400,-0.0526
11.1440,-0.0429
11.1480,-0.0305
11.1520,-0.0346
11.1560,-0.0671
11.1600,-0.0383
11.1640,0.0143
11.1680,-0.0457
11.1720,-0.0445
11.1760,-0.0213
11.1800,-0.0328
11.1840,-0.0092
11.1880,0.0030
11.1920,-0.0118
11.1960,-0.0593
11.2000,-0.0316
11.2040,-0.0223
11.2080,-0.0211
11.2120,-0.0490
11.2160,-0.0383
11.2200,-0.0255
11.2240,-0.0300
11.2280,-0.0241
11.2320,-0.0442
11.2360,-0.0624
11.2400,-0.0461
11.2440,-0.0201
11.2480,-0.0330
11.2520,-0.0354
11.2560,-0.0251
11.2600,-0.0241
11.2640,-0.0068
11.2680,-0.0092
11.2720,-0.0197
11.2760,-0.0329
11.2800,0.0066
11.2840,-0.0147
11.2880,-0.0355
11.2920,-0.0440
11.2960,-0.0434
11.3000,-0.0407
11.3040,-0.0019
11.3080,-0.0149
11.3120,-0.0351
11.3160,-0.0247
11.3200,-0.0229
11.3240,-0.0097
11.3280,-0.0185
11.3320,-0.0412
11.3360,-0.0205
11.3400,-0.0020
11.3440,-0.0102
11.3480,-0.0063
11.3520,-0.0299
11.3560,-0.0199
11.3600,-0.0119
11.3640,-0.0338
11.3680,-0.0059
11.3720,-0.0208
11.3760,-0.0333
11.3800,-0.0156
11.3840,0.0168
11.3880,0.0186
11.3920,-0.0165
11.3960,0.0371
11.4000,0.0711
11.4040,0.0618
11.4080,0.0897
11.4120,0.0605
11.4160,0.0787
11.4200,0.1125
11.4240,0.1354
11.4280,0.1131
11.4320,0.0950
11.4360,0.0825
11.4400,0.0791
11.4440,0.0835
11.4480,0.0777
11.4520,0.0249
11.4560,0.0232
11.4600,-0.0133
11.4640,0.0185
11.4680,-0.0122
11.4720,0.0055
11.4760,-0.0074
11.4800,0.0200
11.4840,0.0155
11.4880,-0.0035
11.4920,0.0075
11.4960,-0.0121
11.5000,-0.0193
11.5040,-0.0129
11.5080,-0.0188
11.5120,-0.0320
11.5160,-0.0079
11.5200,0.0260
11.5240,-0.0005
11.5280,-0.0236
11.5320,-0.0551
11.5360,-0.0779
11.5400,-0.0906
11.5440,-0.0804
11.5480,-0.0796
11.5520,-0.0338
11.5560,0.0447
11.5600,0.1643
11.5640,0.3443
11.5680,0.5557
11.5720,0.7816
11.5760,0.9684
11.5800,1.0101
11.5840,0.8646
11.5880,0.6256
11.5920,0.3601
11.5960,0.1262
11.6000,-0.0298
11.6040,-0.1436
11.6080,-0.2128
11.6120,-0.2116
11.6160,-0.1432
11.6200,-0.0895
11.6240,-0.0437
11.6280,-0.0342
11.6320,-0.0151
11.6360,0.0063
11.6400,-0.0114
11.6440,0.0282
11.6480,0.0343
11.6520,-0.0175
11.6560,-0.0235
11.6600,0.0181
11.6640,-0.0012
11.6680,0.0296
11.6720,0.0006
11.6760,-0.0099
11.6800,0.0340
11.6840,0.0174
11.6880,0.0171
11.6920,-0.0173
11.6960,0.0115
11.7000,0.0057
11.7040,0.0311
11.7080,0.0180
11.7120,0.0163
11.7160,-0.0134
11.7200,0.0182
11.7240,0.0267
11.7280,0.0380
11.7320,0.0341
11.7360,0.0264
11.7400,0.0145
11.7440,0.0746
11.7480,0.0659
11.7520,0.0542
11.7560,0.0843
11.7600,0.1008
11.7640,0.1198
11.7680,0.1265
11.7720,0.1610
11.7760,0.1761
11.7800,0.1970
11.7840,0.2295
11.7880,0.2239
11.7920,0.2258
11.7960,0.2546
11.8000,0.2830
11.8040,0.2938
11.8080,0.2914
11.8120,0.3274
11.8160,0.3100
11.8200,0.3276
11.8240,0.3008
11.8280,0.3202
11.8320,0.3130
11.8360,0.2822
11.8400,0.3216
11.8440,0.2911
11.8480,0.2686
11.8520,0.2408
11.8560,0.2390
11.8600,0.1897
11.8640,0.2364
11.8680,0.1736
11.8720,0.1872
11.8760,0.1833
11.8800,0.1556
11.8840,0.1328
11.8880,0.1304
11.8920,0.1001
11.8960,0.0865
11.9000,0.0661
11.9040,0.0564
11.9080,0.0645
11.9120,0.0558
11.9160,0.0554
11.9200,0.0335
11.9240,0.0737
11.9280,0.0564
11.9320,0.0539
11.9360,0.0228
11.9400,0.0359
11.9440,0.0475
11.9480,0.0313
11.9520,0.0303
11.9560,0.0210
11.9600,0.0266
11.9640,0.0561
11.9680,0.0326
11.9720,0.0516
11.9760,0.0315
11.9800,0.0810
11.9840,0.0516
11.9880,0.0701
11.9920,0.0316
11.9960,0.0391
12.0000,0.0323
12.0040,0.0612
12.0080,0.0552
12.0120,0.0455
12.0160,0.0380
12.0200,0.0667
12.0240,0.0506
12.0280,0.0411
12.0320,0.0328
12.0360,0.0324
12.0400,0.0250
12.0440,0.0452
12.0480,0.0355
12.0520,0.0474
12.0560,0.0402
12.0600,0.0384
12.0640,0.0690
12.0680,0.0268
12.0720,0.0329
12.0760,0.0567
12.0800,0.0804
12.0840,0.0149
12.0880,0.0217
12.0920,0.0484
12.0960,0.0236
12.1000,0.0648
12.1040,0.0665
12.1080,0.0395
12.1120,0.0200
12.1160,0.0422
12.1200,0.0461
12.1240,0.0658
12.1280,0.0770
12.1320,0.0227
12.1360,0.0432
12.1400,0.0419
12.1440,0.0424
12.1480,0.0584
12.1520,0.0433
12.1560,0.0504
12.1600,0.0632
12.1640,0.0729
12.1680,0.0407
12.1720,0.0466
12.1760,0.0404
12.1800,0.0872
12.1840,0.0531
12.1880,0.0784
12.1920,0.0356
12.1960,0.0714
12.2000,0.0635
12.2040,0.1008
12.2080,0.0982
12.2120,0.0916
12.2160,0.1082
12.2200,0.1383
12.2240,0.1582
12.2280,0.1877
12.2320,0.1659
12.2360,0.1600
12.2400,0.1906
12.2440,0.2217
12.2480,0.1861
12.2520,0.1512
12.2560,0.1374
12.2600,0.1435
12.2640,0.1428
12.2680,0.1098
12.2720,0.0984
12.2760,0.0761
12.2800,0.0953
12.2840,0.0737
12.2880,0.0617
12.2920,0.0466
12.2960,0.0556
12.3000,0.0710
12.3040,0.0852
12.3080,0.0734
12.3120,0.0453
12.3160,0.0794
12.3200,0.0620
12.3240,0.0944
12.3280,0.0622
12.3320,0.0787
12.3360,0.0393
12.3400,0.0773
12.3440,0.0648
12.3480,0.0902
12.3520,0.0195
12.3560,-0.0111
12.3600,-0.0679
12.3640,-0.0204
12.3680,0.0018
12.3720,0.0826
12.3760,0.1223
12.3800,0.2404
12.3840,0.4457
12.3880,0.6688
12.3920,0.8745
12.3960,1.0244
12.4000,1.0439
12.4040,0.9474
12.4080,0.6809
12.4120,0.4145
12.4160,0.1607
12.4200,0.0207
12.4240,-0.0478
12.4280,-0.1494
12.4320,-0.1050
12.4360,-0.0891
12.4400,-0.0188
12.4440,0.0288
12.4480,0.0262
12.4520,0.0468
12.4560,0.0633
12.4600,0.1143
12.4640,0.0541
12.4680,0.0944
12.4720,0.0638
12.4760,0.0837
12.4800,0.0937
12.4840,0.0907
12.4880,0.0993
12.4920,0.0701
12.4960,0.0615
12.5000,0.1171
12.5040,0.0841
12.5080,0.1138
12.5120,0.0831
12.5160,0.0731
12.5200,0.0852
12.5240,0.0790
12.5280,0.0715
12.5320,0.0730
12.5360,0.0884
12.5400,0.1026
12.5440,0.1051
12.5480,0.1315
12.5520,0.1071
12.5560,0.0976
12.5600,0.1066
12.5640,0.1564
12.5680,0.1533
12.5720,0.1358
12.5760,0.1458
12.5800,0.1508
12.5840,0.1731
12.5880,0.2045
12.5920,0.2059
12.5960,0.2079
12.6000,0.2413
12.6040,0.2749
12.6080,0.2619
12.6120,0.2784
12.6160,0.2746
12.6200,0.3080
12.6240,0.3623
12.6280,0.3688
12.6320,0.3887
12.6360,0.3500
12.6400,0.3954
12.6440,0.4039
12.6480,0.3890
12.6520,0.3661
12.6560,0.4063
12.6600,0.3844
12.6640,0.3681
12.6680,0.3805
12.6720,0.3731
12.6760,0.3297
12.6800,0.3460
12.6840,0.3259
12.6880,0.3019
12.6920,0.2642
12.6960,0.2584
12.7000,0.2683
12.7040,0.2763
12.7080,0.2283
12.7120,0.1818
12.7160,0.1538
12.7200,0.1602
12.7240,0.1552
12.7280,0.1902
12.7320,0.1442
12.7360,0.1007
12.7400,0.1530
12.7440,0.1207
12.7480,0.1161
12.7520,0.1095
12.7560,0.0943
12.7600,0.1287
12.7640,0.1183
12.7680,0.1099
12.7720,0.0830
12.7760,0.0810
12.7800,0.0909
12.7840,0.1125
12.7880,0.0945
12.7920,0.1039
12.7960,0.0927
12.8000,0.1055
12.8040,0.0919
12.8080,0.1073
12.8120,0.0843
12.8160,0.0843
12.8200,0.0903
12.8240,0.1430
12.8280,0.1197
12.8320,0.1013
12.8360,0.0935
12.8400,0.0806
12.8440,0.1032
12.8480,0.0985
12.8520,0.0888
12.8560,0.0933
12.8600,0.1051
12.8640,0.1172
12.8680,0.1150
12.8720,0.0948
12.8760,0.1091
12.8800,0.1113
12.8840,0.1064
12.8880,0.0967
12.8920,0.0758
12.8960,0.1196
12.9000,0.0963
12.9040,0.1464
12.9080,0.1145
12.9120,0.0833
12.9160,0.0875
12.9200,0.0934
12.9240,0.1199
12.9280,0.0724
12.9320,0.0986
12.9360,0.0955
12.9400,0.0979
12.9440,0.1093
12.9480,0.0942
12.9520,0.0994
12.9560,0.0936
12.9600,0.1044
12.9640,0.1343
12.9680,0.1040
12.9720,0.1053
12.9760,0.1055
12.9800,0.1152
12.9840,0.1162
12.9880,0.1006
12.9920,0.0771
12.9960,0.1021
13.0000,0.0808
13.0040,0.1128
13.0080,0.1130
13.0120,0.1266
13.0160,0.0963
13.0200,0.1292
13.0240,0.1078
13.0280,0.1143
13.0320,0.0722
13.0360,0.0997
13.0400,0.1036
13.0440,0.1222
13.0480,0.1214
13.0520,0.1036
13.0560,0.0988
13.0600,0.1038
13.0640,0.1406
13.0680,0.1461
13.0720,0.1433
13.0760,0.1215
13.0800,0.1585
13.0840,0.1638
13.0880,0.1864
13.0920,0.2180
13.0960,0.1882
13.1000,0.1771
13.1040,0.2447
13.1080,0.2567
13.1120,0.2457
13.1160,0.1986
13.1200,0.2292
13.1240,0.2281
13.1280,0.1973
13.1320,0.1767
13.1360,0.1464
13.1400,0.1669
13.1440,0.1654
13.1480,0.1275
13.1520,0.1178
13.1560,0.0990
13.1600,0.1100
13.1640,0.1237
13.1680,0.1197
13.1720,0.1022
13.1760,0.1059
13.1800,0.1037
13.1840,0.1371
13.1880,0.1172
13.1920,0.1022
13.1960,0.1233
13.2000,0.1312
13.2040,0.1131
13.2080,0.1086
13.2120,0.1271
13.2160,0.0946
13.2200,0.0987
13.2240,0.0688
13.2280,0.0617
13.2320,0.0067
13.2360,0.0203
13.2400,0.0334
13.2440,0.0708
13.2480,0.1315
13.2520,0.1818
13.2560,0.3215
13.2600,0.5387
13.2640,0.7608
13.2680,1.0173
13.2720,1.1008
13.2760,1.0623
13.2800,0.8776
13.2840,0.6580
13.2880,0.4192
13.2920,0.1458
13.2960,-0.0033
13.3000,-0.0429
13.3040,-0.0922
13.3080,-0.0429
13.3120,-0.0367
13.3160,0.0096
13.3200,0.0668
13.3240,0.1089
13.3280,0.1122
13.3320,0.1055
13.3360,0.0813
13.3400,0.1290
13.3440,0.1365
13.3480,0.1265
13.3520,0.1235
13.3560,0.1383
13.3600,0.1019
13.3640,0.1038
13.3680,0.1004
13.3720,0.1207
13.3760,0.0891
13.3800,0.0800
13.3840,0.1179
13.3880,0.1222
13.3920,0.1016
13.3960,0.1163
13.4000,0.1377
13.4040,0.1265
13.4080,0.1104
13.4120,0.0670
13.4160,0.1219
13.4200,0.1164
13.4240,0.1339
13.4280,0.1383
13.4320,0.1507
13.4360,0.1134
13.4400,0.1401
13.4440,0.1737
13.4480,0.1438
13.4520,0.1440
13.4560,0.1363
13.4600,0.1567
13.4640,0.1916
13.4680,0.2356
13.4720,0.1902
13.4760,0.2271
13.4800,0.2581
13.4840,0.2829
13.4880,0.2587
13.4920,0.2699
13.4960,0.3179
13.5000,0.3347
13.5040,0.3571
13.5080,0.3589
13.5120,0.3880
13.5160,0.3559
13.5200,0.4047
13.5240,0.4010
13.5280,0.4135
13.5320,0.4163
13.5360,0.3948
13.5400,0.3656
13.5440,0.3959
13.5480,0.3905
13.5520,0.3260
13.5560,0.3650
13.5600,0.3460
13.5640,0.3461
13.5680,0.3204
13.5720,0.2788
13.5760,0.2734
13.5800,0.2633
13.5840,0.2375
13.5880,0.2067
13.5920,0.1902
13.5960,0.1758
13.6000,0.1811
13.6040,0.1620
13.6080,0.1545
13.6120,0.1188
13.6160,0.1346
13.6200,0.1281
13.6240,0.1002
13.6280,0.0948
13.6320,0.0780
13.6360,0.0983
13.6400,0.1013
13.6440,0.1146
13.6480,0.1122
13.6520,0.0894
13.6560,0.0862
13.6600,0.0923
13.6640,0.0856
13.6680,0.0799
13.6720,0.0738
13.6760,0.0531
13.6800,0.0764
13.6840,0.0837
13.6880,0.1121
13.6920,0.0948
13.6960,0.0799
13.7000,0.0978
13.7040,0.0963
13.7080,0.0879
13.7120,0.0551
13.7160,0.0862
13.7200,0.0389
13.7240,0.0818
13.7280,0.0756
13.7320,0.0574
13.7360,0.0610
13.7400,0.0846
13.7440,0.0898
13.7480,0.1008
13.7520,0.0474
13.7560,0.0716
13.7600,0.0888
13.7640,0.0708
13.7680,0.0828
13.7720,0.0775
13.7760,0.0784
13.7800,0.1071
13.7840,0.1229
13.7880,0.0756
13.7920,0.0669
13.7960,0.0828
13.8000,0.0483
13.8040,0.0611
13.8080,0.1208
13.8120,0.0814
13.8160,0.0502
13.8200,0.0893
13.8240,0.0825
13.8280,0.0471
13.8320,0.0460
13.8360,0.0703
13.8400,0.0745
13.8440,0.0951
13.8480,0.0547
13.8520,0.0651
13.8560,0.0870
13.8600,0.0695
13.8640,0.0891
13.8680,0.0903
13.8720,0.0381
13.8760,0.0782
13.8800,0.0692
13.8840,0.0738
13.8880,0.0893
13.8920,0.0526
13.8960,0.0723
13.9000,0.0675
13.9040,0.0692
13.9080,0.0767
13.9120,0.0282
13.9160,0.0535
13.9200,0.0688
13.9240,0.0856
13.9280,0.0789
13.9320,0.0397
13.9360,0.0633
13.9400,0.0601
13.9440,0.0662
13.9480,0.0701
13.9520,0.0707
13.9560,0.0647
13.9600,0.0525
13.9640,0.0380
13.9680,0.0564
13.9720,0.0439
13.9760,0.0807
13.9800,0.0991
13.9840,0.1075
13.9880,0.1070
13.9920,0.0903
13.9960,0.1008
14.0000,0.1076
14.0040,0.1478
14.0080,0.1215
14.0120,0.1448
14.0160,0.1563
14.0200,0.1764
14.0240,0.1739
14.0280,0.1754
14.0320,0.1409
14.0360,0.1554
14.0400,0.1241
14.0440,0.1152
14.0480,0.1232
14.0520,0.0941
14.0560,0.0965
14.0600,0.0844
14.0640,0.0691
14.0680,0.0304
14.0720,0.0295
14.0760,0.0241
14.0800,0.0457
14.0840,0.0409
14.0880,0.0374
14.0920,0.0288
14.0960,0.0199
14.1000,0.0341
14.1040,0.0492
14.1080,0.0379
14.1120,0.0211
14.1160,0.0084
14.1200,0.0472
14.1240,0.0387
14.1280,0.0154
14.1320,0.0114
14.1360,-0.0332
14.1400,-0.0473
14.1440,-0.0598
14.1480,-0.0739
14.1520,-0.0545
14.1560,0.0186
14.1600,0.1060
14.1640,0.2071
14.1680,0.3677
14.1720,0.5982
14.1760,0.8257
14.1800,1.0007
14.1840,1.0370
14.1880,0.9053
14.1920,0.6454
14.1960,0.3552
14.2000,0.1536
14.2040,-0.0438
14.2080,-0.1103
14.2120,-0.1968
14.2160,-0.1713
14.2200,-0.1354
14.2240,-0.0863
14.2280,-0.0460
14.2320,-0.0184
14.2360,0.0047
14.2400,-0.0102
14.2440,0.0444
14.2480,-0.0027
14.2520,0.0043
14.2560,-0.0192
14.2600,0.0078
14.2640,0.0387
14.2680,0.0329
14.2720,0.0261
14.2760,0.0194
14.2800,0.0023
14.2840,0.0280
14.2880,-0.0052
14.2920,0.0055
14.2960,-0.0121
14.3000,0.0113
14.3040,0.0179
14.3080,0.0394
14.3120,0.0095
14.3160,0.0276
14.3200,0.0159
14.3240,-0.0119
14.3280,0.0082
14.3320,-0.0020
14.3360,-0.0066
14.3400,0.0522
14.3440,0.0456
14.3480,0.0491
14.3520,0.0317
14.3560,0.0451
14.3600,0.0503
14.3640,0.0771
14.3680,0.0858
14.3720,0.0603
14.3760,0.1019
14.3800,0.1406
14.3840,0.1448
14.3880,0.1403
14.3920,0.1749
14.3960,0.1847
14.4000,0.1775
14.4040,0.2137
14.4080,0.2253
14.4120,0.2435
14.4160,0.2450
14.4200,0.2697
14.4240,0.2936
14.4280,0.3005
14.4320,0.2811
14.4360,0.2811
14.4400,0.2876
14.4440,0.2980
14.4480,0.2759
14.4520,0.2268
14.4560,0.2489
14.4600,0.2465
14.4640,0.2460
14.4680,0.2139
14.4720,0.2055
14.4760,0.1785
14.4800,0.1608
14.4840,0.1844
14.4880,0.1606
14.4920,0.0878
14.4960,0.0885
14.5000,0.0898
14.5040,0.0996
14.5080,0.0783
14.5120,0.0540
14.5160,0.0097
14.5200,0.0029
14.5240,0.0232
14.5280,0.0463
14.5320,0.0207
14.5360,0.0081
14.5400,0.0007
14.5440,-0.0212
14.5480,-0.0015
14.5520,-0.0486
14.5560,-0.0539
14.5600,-0.0396
14.5640,-0.0295
14.5680,0.0049
14.5720,-0.0318
14.5760,-0.0337
14.5800,-0.0168
14.5840,-0.0361
14.5880,-0.0411
14.5920,-0.0425
14.5960,-0.0501
14.6000,-0.0157
14.6040,-0.0454
14.6080,-0.0277
14.6120,-0.0529
14.6160,-0.0705
14.6200,-0.0219
14.6240,-0.0488
14.6280,-0.0479
14.6320,-0.0555
14.6360,-0.0588
14.6400,-0.0456
14.6440,-0.0387
14.6480,-0.0311
14.6520,-0.0659
14.6560,-0.0634
14.6600,-0.0462
14.6640,-0.0422
14.6680,-0.0341
14.6720,-0.0489
14.6760,-0.0595
14.6800,-0.0450
14.6840,-0.0678
14.6880,-0.0434
14.6920,-0.0662
14.6960,-0.0362
14.7000,-0.0764
14.7040,-0.0293
14.7080,-0.0229
14.7120,-0.0597
14.7160,-0.0548
14.7200,-0.0353
14.7240,-0.0271
14.7280,-0.0613
14.7320,-0.0823
14.7360,-0.0592
14.7400,-0.0604
14.7440,-0.0824
14.7480,-0.0336
14.7520,-0.0776
14.7560,-0.0921
14.7600,-0.0663
14.7640,-0.0575
14.7680,-0.0528
14.7720,-0.0660
14.7760,-0.0624
14.7800,-0.0587
14.7840,-0.0484
14.7880,-0.0482
14.7920,-0.0788
14.7960,-0.0576
14.8000,-0.0712
14.8040,-0.0697
14.8080,-0.0615
14.8120,-0.0556
14.8160,-0.0678
14.8200,-0.0797
14.8240,-0.0512
14.8280,-0.0842
14.8320,-0.0960
14.8360,-0.0732
14.8400,-0.0650
14.8440,-0.0501
14.8480,-0.0654
14.8520,-0.0774
14.8560,-0.0884
14.8600,-0.0729
14.8640,-0.0773
14.8680,-0.1008
14.8720,-0.0665
14.8760,-0.0792
14.8800,-0.0597
14.8840,-0.0750
14.8880,-0.0723
14.8920,-0.0744
14.8960,-0.0661
14.9000,-0.0491
14.9040,-0.0167
14.9080,0.0118
14.9120,-0.0436
14.9160,0.0156
14.9200,-0.0000
14.9240,0.0254
14.9280,0.0190
14.9320,0.0049
14.9360,0.0304
14.9400,0.0352
14.9440,0.0367
14.9480,0.0522
14.9520,-0.0295
14.9560,-0.0239
14.9600,-0.0430
14.9640,-0.0096
14.9680,-0.0416
14.9720,-0.0779
14.9760,-0.0892
14.9800,-0.0889
14.9840,-0.0688
14.9880,-0.0894
14.9920,-0.0873
14.9960,-0.0953
15.0000,-0.0917
15.0040,-0.0837
15.0080,-0.0846
15.0120,-0.1363
15.0160,-0.0914
15.0200,-0.0916
15.0240,-0.0915
15.0280,-0.1036
15.0320,-0.1145
15.0360,-0.1336
15.0400,-0.1257
15.0440,-0.1768
15.0480,-0.2048
15.0520,-0.1832
15.0560,-0.1557
15.0600,-0.0933
15.0640,0.0099
15.0680,0.1893
15.0720,0.3803
15.0760,0.6084
15.0800,0.8202
15.0840,0.9126
15.0880,0.8420
15.0920,0.6039
15.0960,0.3618
15.1000,0.1025
15.1040,-0.0794
15.1080,-0.2293
15.1120,-0.3057
15.1160,-0.3332
15.1200,-0.2891
15.1240,-0.2054
15.1280,-0.1664
15.1320,-0.1680
15.1360,-0.1504
15.1400,-0.1193
15.1440,-0.1272
15.1480,-0.1017
15.1520,-0.1177
15.1560,-0.1194
15.1600,-0.1274
15.1640,-0.0983
15.1680,-0.1389
15.1720,-0.1053
15.1760,-0.1345
15.1800,-0.1288
15.1840,-0.0952
15.1880,-0.1117
15.1920,-0.1449
15.1960,-0.0960
15.2000,-0.1036
15.2040,-0.1021
15.2080,-0.0939
15.2120,-0.1140
15.2160,-0.1184
15.2200,-0.1011
15.2240,-0.0772
15.2280,-0.1017
15.2320,-0.1124
15.2360,-0.1365
15.2400,-0.0782
15.2440,-0.0844
15.2480,-0.0504
15.2520,-0.0541
15.2560,-0.0754
15.2600,-0.0213
15.2640,-0.0173
15.2680,-0.0080
15.2720,0.0029
15.2760,0.0256
15.2800,0.0432
15.2840,0.0430
15.2880,0.0973
15.2920,0.0904
15.2960,0.1047
15.3000,0.1519
15.3040,0.1650
15.3080,0.1726
15.3120,0.1602
15.3160,0.1559
15.3200,0.1671
15.3240,0.2153
15.3280,0.1707
15.3320,0.1406
15.3360,0.1533
15.3400,0.1437
15.3440,0.1201
15.3480,0.1346
15.3520,0.0767
15.3560,0.1015
15.3600,0.0773
15.3640,0.0644
15.3680,0.0391
15.3720,-0.0061
15.3760,-0.0313
15.3800,-0.0272
15.3840,-0.0613
15.3880,-0.0349
15.3920,-0.0583
15.3960,-0.0740
15.4000,-0.0851
15.4040,-0.0867
15.4080,-0.1089
15.4120,-0.1066
15.4160,-0.1465
15.4200,-0.1227
15.4240,-0.0866
15.4280,-0.1389
15.4320,-0.1266
15.4360,-0.1316
15.4400,-0.1514
15.4440,-0.1268
15.4480,-0.1303
15.4520,-0.1484
15.4560,-0.1357
15.4600,-0.1488
15.4640,-0.1502
15.4680,-0.1300
15.4720,-0.1501
15.4760,-0.1382
15.4800,-0.1584
15.4840,-0.1280
15.4880,-0.1228
15.4920,-0.1395
15.4960,-0.1554
15.5000,-0.1164
15.5040,-0.1362
15.5080,-0.1635
15.5120,-0.1242
15.5160,-0.1289
15.5200,-0.1434
15.5240,-0.1324
15.5280,-0.1225
15.5320,-0.1512
15.5360,-0.1402
15.5400,-0.1529
15.5440,-0.1378
15.5480,-0.1169
15.5520,-0.1405
15.5560,-0.1486
15.5600,-0.1678
15.5640,-0.1351
15.5680,-0.1471
15.5720,-0.1296
15.5760,-0.1414
15.5800,-0.1283
15.5840,-0.1302
15.5880,-0.1077
15.5920,-0.1834
15.5960,-0.1667
15.6000,-0.1426
15.6040,-0.1315
15.6080,-0.1478
15.6120,-0.1546
15.6160,-0.1643
15.6200,-0.1348
15.6240,-0.1454
15.6280,-0.1614
15.6320,-0.1537
15.6360,-0.1367
15.6400,-0.1192
15.6440,-0.1536
15.6480,-0.1557
15.6520,-0.1399
15.6560,-0.1647
15.6600,-0.1395
15.6640,-0.0934
15.6680,-0.0843
15.6720,-0.0938
15.6760,-0.0814
15.6800,-0.0820
15.6840,-0.0940
15.6880,-0.0708
15.6920,-0.0419
15.6960,-0.0756
15.7000,-0.0647
15.7040,-0.0316
15.7080,-0.0066
15.7120,-0.0179
15.7160,-0.0107
15.7200,-0.0385
15.7240,-0.0226
15.7280,-0.0529
15.7320,-0.0771
15.7360,-0.0696
15.7400,-0.0962
15.7440,-0.1064
15.7480,-0.0898
15.7520,-0.1091
15.7560,-0.1266
15.7600,-0.0976
15.7640,-0.1217
15.7680,-0.1429
15.7720,-0.1575
15.7760,-0.1652
15.7800,-0.1316
15.7840,-0.1142
15.7880,-0.1267
15.7920,-0.1597
15.7960,-0.1342
15.8000,-0.1316
15.8040,-0.1336
15.8080,-0.1678
15.8120,-0.1940
15.8160,-0.1948
15.8200,-0.2121
15.8240,-0.2188
15.8280,-0.2641
15.8320,-0.2429
15.8360,-0.1978
15.8400,-0.1541
15.8440,-0.0477
15.8480,0.1102
15.8520,0.3181
15.8560,0.5560
15.8600,0.7683
15.8640,0.8509
15.8680,0.8136
15.8720,0.6054
15.8760,0.3235
15.8800,0.1323
15.8840,-0.0777
15.8880,-0.2594
15.8920,-0.3673
15.8960,-0.3674
15.9000,-0.3314
15.9040,-0.2572
15.9080,-0.2055
15.9120,-0.1837
15.9160,-0.1873
15.9200,-0.1532
15.9240,-0.1146
15.9280,-0.1304
15.9320,-0.1555
15.9360,-0.1843
15.9400,-0.1595
15.9440,-0.1037
15.9480,-0.1247
15.9520,-0.1263
15.9560,-0.1473
15.9600,-0.1392
15.9640,-0.1334
15.9680,-0.1391
15.9720,-0.1751
15.9760,-0.1450
15.9800,-0.1271
15.9840,-0.1228
15.9880,-0.1310
15.9920,-0.1332
15.9960,-0.1427
16.0000,-0.1388
16.0040,-0.1033
16.0080,-0.1104
16.0120,-0.1471
16.0160,-0.1161
16.0200,-0.0786
16.0240,-0.0948
16.0280,-0.0751
16.0320,-0.0948
16.0360,-0.0760
16.0400,-0.0322
16.0440,-0.0558
16.0480,-0.0196
16.0520,-0.0319
16.0560,-0.0197
16.0600,0.0097
16.0640,0.0216
16.0680,0.0401
16.0720,0.0825
16.0760,0.0590
16.0800,0.1136
16.0840,0.1120
16.0880,0.1123
16.0920,0.1499
16.0960,0.1498
16.1000,0.1770
16.1040,0.1708
16.1080,0.1663
16.1120,0.1857
16.1160,0.1535
16.1200,0.1471
16.1240,0.1837
16.1280,0.1437
16.1320,0.1245
16.1360,0.0931
16.1400,0.1025
16.1440,0.0835
16.1480,0.0786
16.1520,0.0474
16.1560,-0.0004
16.1600,0.0174
16.1640,-0.0043
16.1680,0.0336
16.1720,-0.0359
16.1760,-0.0398
16.1800,-0.0257
16.1840,-0.0604
16.1880,-0.0629
16.1920,-0.0919
16.1960,-0.0997
16.2000,-0.0924
16.2040,-0.0791
16.2080,-0.1052
16.2120,-0.0873
16.2160,-0.0928
16.2200,-0.1027
16.2240,-0.1204
16.2280,-0.0841
16.2320,-0.1396
16.2360,-0.1159
16.2400,-0.1326
16.2440,-0.1310
16.2480,-0.0972
16.2520,-0.1027
16.2560,-0.1251
16.2600,-0.1002
16.2640,-0.0945
16.2680,-0.1088
16.2720,-0.1257
16.2760,-0.1458
16.2800,-0.1049
16.2840,-0.1234
16.2880,-0.0973
16.2920,-0.1149
16.2960,-0.1134
16.3000,-0.1373
16.3040,-0.0830
16.3080,-0.1161
16.3120,-0.1146
16.3160,-0.0877
16.3200,-0.0992
16.3240,-0.1096
16.3280,-0.1025
16.3320,-0.1029
16.3360,-0.1147
16.3400,-0.1017
16.3440,-0.1212
16.3480,-0.0906
16.3520,-0.1108
16.3560,-0.0953
16.3600,-0.1016
16.3640,-0.1011
16.3680,-0.1346
16.3720,-0.0997
16.3760,-0.0920
16.3800,-0.0920
16.3840,-0.0668
16.3880,-0.0716
16.3920,-0.1211
16.3960,-0.1128
16.4000,-0.1056
16.4040,-0.0784
16.4080,-0.0818
16.4120,-0.0955
16.4160,-0.1149
16.4200,-0.1074
16.4240,-0.0663
16.4280,-0.1006
16.4320,-0.1164
16.4360,-0.1216
16.4400,-0.0944
16.4440,-0.0860
16.4480,-0.0815
16.4520,-0.1142
16.4560,-0.1169
16.4600,-0.1222
16.4640,-0.0818
16.4680,-0.1261
16.4720,-0.0868
16.4760,-0.1045
16.4800,-0.0937
16.4840,-0.0709
16.4880,-0.0595
16.4920,-0.0751
16.4960,-0.0322
16.5000,-0.0301
16.5040,-0.0068
16.5080,-0.0131
16.5120,-0.0002
16.5160,-0.0033
16.5200,0.0455
16.5240,0.0388
16.5280,0.0507
16.5320,0.0333
16.5360,0.0163
16.5400,0.0425
16.5440,0.0489
16.5480,0.0293
16.5520,-0.0135
16.5560,-0.0267
16.5600,-0.0215
16.5640,-0.0487
16.5680,-0.0363
16.5720,-0.0395
16.5760,-0.0822
16.5800,-0.0698
16.5840,-0.0492
16.5880,-0.0545
16.5920,-0.0640
16.5960,-0.0806
16.6000,-0.0642
16.6040,-0.0450
16.6080,-0.0575
16.6120,-0.1089
16.6160,-0.0730
16.6200,-0.0593
16.6240,-0.0714
16.6280,-0.0537
16.6320,-0.0760
16.6360,-0.1012
16.6400,-0.0939
16.6440,-0.0990
16.6480,-0.0900
16.6520,-0.1663
16.6560,-0.1567
16.6600,-0.1119
16.6640,-0.0567
16.6680,0.0530
16.6720,0.1852
16.6760,0.3728
16.6800,0.6083
16.6840,0.8603
16.6880,0.9486
16.6920,0.8712
16.6960,0.7152
16.7000,0.4437
16.7040,0.2165
16.7080,-0.0016
16.7120,-0.1565
16.7160,-0.2354
16.7200,-0.2686
16.7240,-0.1943
16.7280,-0.1570
16.7320,-0.1288
16.7360,-0.0955
16.7400,-0.0706
16.7440,-0.0359
16.7480,-0.0324
16.7520,-0.0503
16.7560,-0.0637
16.7600,-0.0211
16.7640,-0.0231
16.7680,-0.0237
16.7720,-0.0144
16.7760,-0.0216
16.7800,-0.0429
16.7840,-0.0520
16.7880,-0.0285
16.7920,-0.0233
16.7960,-0.0366
16.8000,-0.0405
16.8040,-0.0224
16.8080,-0.0329
16.8120,-0.0567
16.8160,-0.0126
16.8200,-0.0381
16.8240,-0.0283
16.8280,-0.0021
16.8320,-0.0182
16.8360,-0.0264
16.8400,-0.0152
16.8440,-0.0051
16.8480,-0.0018
16.8520,-0.0083
16.8560,0.0061
16.8600,0.0482
16.8640,0.0630
16.8680,0.0643
16.8720,0.0782
16.8760,0.0981
16.8800,0.1174
16.8840,0.1370
16.8880,0.1476
16.8920,0.1374
16.8960,0.1591
16.9000,0.1943
16.9040,0.1853
16.9080,0.2148
16.9120,0.2286
16.9160,0.2380
16.9200,0.2497
16.9240,0.2984
16.9280,0.2746
16.9320,0.2653
16.9360,0.2749
16.9400,0.3106
16.9440,0.2811
16.9480,0.2814
16.9520,0.2874
16.9560,0.2592
16.9600,0.2450
16.9640,0.2602
16.9680,0.2032
16.9720,0.1978
16.9760,0.1570
16.9800,0.1500
16.9840,0.1637
16.9880,0.1104
16.9920,0.1200
16.9960,0.0899
17.0000,0.0782
17.0040,0.0944
17.0080,0.0582
17.0120,0.0773
17.0160,0.0567
17.0200,0.0441
17.0240,0.0661
17.0280,-0.0008
17.0320,0.0173
17.0360,0.0248
17.0400,-0.0059
17.0440,0.0443
17.0480,0.0330
17.0520,0.0120
17.0560,0.0004
17.0600,-0.0060
17.0640,0.0115
17.0680,0.0167
17.0720,-0.0029
17.0760,0.0049
17.0800,0.0269
17.0840,0.0343
17.0880,0.0261
17.0920,0.0083
17.0960,0.0127
17.1000,-0.0057
17.1040,0.0250
17.1080,0.0278
17.1120,-0.0040
17.1160,0.0309
17.1200,0.0320
17.1240,0.0250
17.1280,0.0541
17.1320,0.0272
17.1360,-0.0041
17.1400,0.0160
17.1440,0.0469
17.1480,0.0479
17.1520,0.0311
17.1560,0.0160
17.1600,0.0194
17.1640,0.0143
17.1680,0.0168
17.1720,0.0185
17.1760,0.0305
17.1800,0.0038
17.1840,0.0614
17.1880,0.0479
17.1920,0.0234
17.1960,0.0729
17.2000,0.0425
17.2040,0.0236
17.2080,0.0479
17.2120,0.0081
17.2160,0.0415
17.2200,0.0302
17.2240,0.0491
17.2280,0.0743
17.2320,0.0381
17.2360,0.0336
17.2400,0.0599
17.2440,0.0656
17.2480,0.0613
17.2520,0.0545
17.2560,0.0284
17.2600,0.0516
17.2640,0.0658
17.2680,0.0460
17.2720,0.0620
17.2760,0.0479
17.2800,0.0545
17.2840,0.0691
17.2880,0.0872
17.2920,0.0301
17.2960,0.0496
17.3000,0.0405
17.3040,0.0700
17.3080,0.0748
17.3120,0.0870
17.3160,0.0450
17.3200,0.0844
17.3240,0.0919
17.3280,0.1091
17.3320,0.0988
17.3360,0.1145
17.3400,0.1668
17.3440,0.1814
17.3480,0.1715
17.3520,0.1765
17.3560,0.1594
17.3600,0.1559
17.3640,0.1853
17.3680,0.2042
17.3720,0.1297
17.3760,0.1570
17.3800,0.1418
17.3840,0.1237
17.3880,0.1444
17.3920,0.1066
17.3960,0.0983
17.4000,0.0740
17.4040,0.0995
17.4080,0.0629
17.4120,0.0711
17.4160,0.0687
17.4200,0.0868
17.4240,0.1157
17.4280,0.0897
17.4320,0.0493
17.4360,0.0544
17.4400,0.0812
17.4440,0.0669
17.4480,0.0816
17.4520,0.0840
17.4560,0.0887
17.4600,0.0618
17.4640,0.0792
17.4680,0.0557
17.4720,0.0398
17.4760,0.0025
17.4800,-0.0028
17.4840,0.0046
17.4880,0.0284
17.4920,0.0724
17.4960,0.1343
17.5000,0.2622
17.5040,0.4708
17.5080,0.6564
17.5120,0.8975
17.5160,1.0539
17.5200,1.0842
17.5240,0.9497
17.5280,0.7074
17.5320,0.4452
17.5360,0.2255
17.5400,0.0349
17.5440,-0.0369
17.5480,-0.1023
17.5520,-0.1037
17.5560,-0.0747
17.5600,-0.0015
17.5640,0.0750
17.5680,0.0629
17.5720,0.0793
17.5760,0.1164
17.5800,0.1141
17.5840,0.0967
17.5880,0.1124
17.5920,0.0915
17.5960,0.1011
17.6000,0.1343
17.6040,0.1097
17.6080,0.1149
17.6120,0.0904
17.6160,0.1071
17.6200,0.0988
17.6240,0.0911
17.6280,0.1416
17.6320,0.1116
17.6360,0.1103
17.6400,0.0844
17.6440,0.1061
17.6480,0.1246
17.6520,0.1029
17.6560,0.1185
17.6600,0.1376
17.6640,0.1536
17.6680,0.1345
17.6720,0.1376
17.6760,0.1319
17.6800,0.1606
17.6840,0.1654
17.6880,0.1378
17.6920,0.1412
17.6960,0.1547
17.7000,0.1780
17.7040,0.1987
17.7080,0.2155
17.7120,0.2039
17.7160,0.2266
17.7200,0.2382
17.7240,0.2543
17.7280,0.3151
17.7320,0.2819
17.7360,0.3165
17.7400,0.3601
17.7440,0.3693
17.7480,0.3693
17.7520,0.3765
17.7560,0.3836
17.7600,0.4147
17.7640,0.4079
17.7680,0.4340
17.7720,0.3891
17.7760,0.4208
17.7800,0.3825
17.7840,0.4250
17.7880,0.3936
17.7920,0.3973
17.7960,0.3620
17.8000,0.3668
17.8040,0.3317
17.8080,0.3199
17.8120,0.2918
17.8160,0.2865
17.8200,0.2640
17.8240,0.2741
17.8280,0.2235
17.8320,0.2078
17.8360,0.2113
17.8400,0.2218
17.8440,0.2065
17.8480,0.1947
17.8520,0.1913
17.8560,0.1389
17.8600,0.1708
17.8640,0.1852
17.8680,0.1397
17.8720,0.1546
17.8760,0.1236
17.8800,0.1489
17.8840,0.1833
17.8880,0.1223
17.8920,0.1234
17.8960,0.1078
17.9000,0.1319
17.9040,0.1254
17.9080,0.1779
17.9120,0.1413
17.9160,0.1488
17.9200,0.1353
17.9240,0.1230
17.9280,0.1395
17.9320,0.1088
17.9360,0.1046
17.9400,0.1594
17.9440,0.1366
17.9480,0.1447
17.9520,0.1161
17.9560,0.1299
17.9600,0.1450
17.9640,0.1680
17.9680,0.1303
17.9720,0.1214
17.9760,0.1222
17.9800,0.1142
17.9840,0.1677
17.9880,0.1547
17.9920,0.1116
17.9960,0.1591
18.0000,0.1415
18.0040,0.1479
18.0080,0.1488
18.0120,0.1352
18.0160,0.1149
18.0200,0.1631
18.0240,0.1720
18.0280,0.1250
18.0320,0.1243
18.0360,0.1205
18.0400,0.1351
18.0440,0.1552
18.0480,0.1445
18.0520,0.1376
18.0560,0.1338
18.0600,0.1422
18.0640,0.1616
18.0680,0.1421
18.0720,0.1384
18.0760,0.1305
18.0800,0.1294
18.0840,0.1390
18.0880,0.1300
18.0920,0.1199
18.0960,0.1352
18.1000,0.1587
18.1040,0.1769
18.1080,0.1386
18.1120,0.1540
18.1160,0.1235
18.1200,0.1180
18.1240,0.1587
18.1280,0.1346
18.1320,0.1378
18.1360,0.1135
18.1400,0.1381
18.1440,0.1656
18.1480,0.1372
18.1520,0.1453
18.1560,0.1549
18.1600,0.1498
18.1640,0.1715
18.1680,0.1425
18.1720,0.1470
18.1760,0.1196
18.1800,0.1530
18.1840,0.1573
18.1880,0.1672
18.1920,0.1300
18.1960,0.1802
18.2000,0.1897
18.2040,0.1785
18.2080,0.1847
18.2120,0.1883
18.2160,0.1985
18.2200,0.2199
18.2240,0.2339
18.2280,0.2764
18.2320,0.2617
18.2360,0.2542
18.2400,0.2666
18.2440,0.2749
18.2480,0.2580
18.2520,0.2400
18.2560,0.2278
18.2600,0.2368
18.2640,0.2042
18.2680,0.1895
18.2720,0.2075
18.2760,0.1755
18.2800,0.1647
18.2840,0.1742
18.2880,0.1738
18.2920,0.1528
18.2960,0.1453
18.3000,0.1801
18.3040,0.1642
18.3080,0.1380
18.3120,0.1314
18.3160,0.1525
18.3200,0.1511
18.3240,0.1334
18.3280,0.1545
18.3320,0.1445
18.3360,0.1462
18.3400,0.1275
18.3440,0.1261
18.3480,0.1435
18.3520,0.1219
18.3560,0.0891
18.3600,0.0481
18.3640,0.0462
18.3680,0.0555
18.3720,0.1024
18.3760,0.1561
18.3800,0.2239
18.3840,0.3745
18.3880,0.5784
18.3920,0.8199
18.3960,1.0408
18.4000,1.1655
18.4040,1.1106
18.4080,0.9494
18.4120,0.6938
18.4160,0.4094
18.4200,0.2109
18.4240,0.0615
18.4280,-0.0635
18.4320,-0.0634
18.4360,-0.0696
18.4400,-0.0064
18.4440,0.0728
18.4480,0.1049
18.4520,0.0892
18.4560,0.1689
18.4600,0.1334
18.4640,0.1395
18.4680,0.1063
18.4720,0.1282
18.4760,0.1111
18.4800,0.1350
18.4840,0.1486
18.4880,0.1306
18.4920,0.1605
18.4960,0.1186
18.5000,0.1368
18.5040,0.1409
18.5080,0.1265
18.5120,0.1428
18.5160,0.1291
18.5200,0.1365
18.5240,0.1486
18.5280,0.1494
18.5320,0.1377
18.5360,0.1409
18.5400,0.1502
18.5440,0.1622
18.5480,0.1605
18.5520,0.1516
18.5560,0.1316
18.5600,0.1657
18.5640,0.1696
18.5680,0.1494
18.5720,0.1685
18.5760,0.2113
18.5800,0.2037
18.5840,0.2430
18.5880,0.2340
18.5920,0.2147
18.5960,0.2224
18.6000,0.2536
18.6040,0.2739
18.6080,0.3036
18.6120,0.3176
18.6160,0.3103
18.6200,0.3378
18.6240,0.3845
18.6280,0.3981
18.6320,0.3934
18.6360,0.4279
18.6400,0.4166
18.6440,0.4375
18.6480,0.4352
18.6520,0.4070
18.6560,0.4449
18.6600,0.4426
18.6640,0.4242
18.6680,0.4028
18.6720,0.4060
18.6760,0.3701
18.6800,0.3656
18.6840,0.3823
18.6880,0.3460
18.6920,0.3332
18.6960,0.2931
18.7000,0.2924
18.7040,0.3127
18.7080,0.2697
18.7120,0.2234
18.7160,0.2398
18.7200,0.2032
18.7240,0.2066
18.7280,0.2052
18.7320,0.1819
18.7360,0.1617
18.7400,0.1444
18.7440,0.1744
18.7480,0.1881
18.7520,0.1360
18.7560,0.1136
18.7600,0.1432
18.7640,0.1437
18.7680,0.1506
18.7720,0.1116
18.7760,0.0980
18.7800,0.1223
18.7840,0.1228
18.7880,0.1513
18.7920,0.1233
18.7960,0.0848
18.8000,0.1270
18.8040,0.1447
18.8080,0.1183
18.8120,0.1226
18.8160,0.1026
18.8200,0.1043
18.8240,0.1383
18.8280,0.1048
18.8320,0.1248
18.8360,0.1050
18.8400,0.1113
18.8440,0.1493
18.8480,0.1247
18.8520,0.0950
18.8560,0.0911
18.8600,0.0783
18.8640,0.1302
18.8680,0.1307
18.8720,0.1068
18.8760,0.1171
18.8800,0.1099
18.8840,0.1029
18.8880,0.1015
18.8920,0.0829
18.8960,0.1046
18.9000,0.0931
18.9040,0.1302
18.9080,0.1124
18.9120,0.1237
18.9160,0.0946
18.9200,0.0874
18.9240,0.1389
18.9280,0.1160
18.9320,0.0757
18.9360,0.1034
18.9400,0.0923
18.9440,0.1199
18.9480,0.1219
18.9520,0.1137
18.9560,0.0990
18.9600,0.1070
18.9640,0.1215
18.9680,0.0957
18.9720,0.0945
18.9760,0.0965
18.9800,0.0961
18.9840,0.0881
18.9880,0.1048
18.9920,0.0910
18.9960,0.0643
19.0000,0.1066
19.0040,0.1157
19.0080,0.0649
19.0120,0.0705
19.0160,0.0721
19.0200,0.1046
19.0240,0.0818
19.0280,0.1038
19.0320,0.0905
19.0360,0.0681
19.0400,0.0732
19.0440,0.0810
19.0480,0.1011
19.0520,0.0630
19.0560,0.0754
19.0600,0.0911
19.0640,0.1273
19.0680,0.0785
19.0720,0.0520
19.0760,0.0685
19.0800,0.0842
19.0840,0.0848
19.0880,0.1022
19.0920,0.1220
19.0960,0.1089
19.1000,0.1224
19.1040,0.1559
19.1080,0.1805
19.1120,0.2040
19.1160,0.1410
19.1200,0.1810
19.1240,0.2103
19.1280,0.2058
19.1320,0.1903
19.1360,0.1935
19.1400,0.1671
19.1440,0.1907
19.1480,0.1891
19.1520,0.1368
19.1560,0.1254
19.1600,0.1450
19.1640,0.1351
19.1680,0.1022
19.1720,0.0712
19.1760,0.0542
19.1800,0.1161
19.1840,0.1259
19.1880,0.0643
19.1920,0.0284
19.1960,0.0573
19.2000,0.0742
19.2040,0.0602
19.2080,0.0760
19.2120,0.0597
19.2160,0.0320
19.2200,0.0601
19.2240,0.0699
19.2280,0.0671
19.2320,0.0473
19.2360,0.0139
19.2400,-0.0084
19.2440,-0.0126
19.2480,-0.0537
19.2520,-0.0055
19.2560,0.0624
19.2600,0.1304
19.2640,0.2759
19.2680,0.4630
19.2720,0.6959
19.2760,0.8999
19.2800,1.0239
19.2840,1.0343
19.2880,0.8664
19.2920,0.5957
19.2960,0.3776
19.3000,0.1178
19.3040,-0.0142
19.3080,-0.1189
19.3120,-0.1643
19.3160,-0.1394
19.3200,-0.0923
19.3240,-0.0437
19.3280,0.0181
19.3320,0.0005
19.3360,0.0133
19.3400,0.0823
19.3440,0.0317
19.3480,0.0371
19.3520,0.0324
19.3560,0.0327
19.3600,0.0338
19.3640,0.0521
19.3680,0.0567
19.3720,0.0365
19.3760,0.0201
19.3800,0.0151
19.3840,0.0387
19.3880,0.0343
19.3920,0.0341
19.3960,0.0303
19.4000,0.0342
19.4040,0.0484
19.4080,0.0382
19.4120,0.0399
19.4160,0.0154
19.4200,0.0307
19.4240,0.0625
19.4280,0.0498
19.4320,0.0424
19.4360,0.0431
19.4400,0.0678
19.4440,0.0770
19.4480,0.0962
19.4520,0.0894
19.4560,0.0971
19.4600,0.1330
19.4640,0.1221
19.4680,0.1423
19.4720,0.1571
19.4760,0.1531
19.4800,0.2026
19.4840,0.2316
19.4880,0.2260
19.4920,0.2423
19.4960,0.2468
19.5000,0.2983
19.5040,0.3137
19.5080,0.3148
19.5120,0.3068
19.5160,0.2810
19.5200,0.3211
19.5240,0.3310
19.5280,0.3212
19.5320,0.2809
19.5360,0.3000
19.5400,0.2851
19.5440,0.2621
19.5480,0.2740
19.5520,0.2268
19.5560,0.2024
19.5600,0.2001
19.5640,0.1858
19.5680,0.1707
19.5720,0.1550
19.5760,0.1265
19.5800,0.1076
19.5840,0.1103
19.5880,0.0800
19.5920,0.0785
19.5960,0.0691
19.6000,0.0246
19.6040,0.0188
19.6080,0.0355
19.6120,0.0124
19.6160,-0.0038
19.6200,0.0129
19.6240,0.0177
19.6280,0.0088
19.6320,0.0150
19.6360,0.0065
19.6400,0.0045
19.6440,-0.0078
19.6480,0.0062
19.6520,-0.0247
19.6560,-0.0660
19.6600,0.0125
19.6640,-0.0110
19.6680,0.0159
19.6720,0.0032
19.6760,-0.0163
19.6800,-0.0198
19.6840,0.0177
19.6880,-0.0196
19.6920,-0.0254
19.6960,-0.0265
19.7000,-0.0041
19.7040,-0.0082
19.7080,-0.0181
19.7120,-0.0181
19.7160,-0.0083
19.7200,-0.0078
19.7240,0.0034
19.7280,-0.0088
19.7320,0.0137
19.7360,-0.0232
19.7400,-0.0283
19.7440,-0.0150
19.7480,-0.0279
19.7520,-0.0155
19.7560,-0.0053
19.7600,-0.0287
19.7640,0.0074
19.7680,-0.0283
19.7720,-0.0455
19.7760,-0.0260
19.7800,-0.0197
19.7840,-0.0123
19.7880,-0.0100
19.7920,-0.0293
19.7960,-0.0547
19.8000,-0.0589
19.8040,-0.0485
19.8080,-0.0024
19.8120,-0.0260
19.8160,-0.0369
19.8200,-0.0299
19.8240,-0.0433
19.8280,-0.0317
19.8320,-0.0131
19.8360,-0.0542
19.8400,-0.0085
19.8440,-0.0360
19.8480,-0.0440
19.8520,-0.0380
19.8560,-0.0517
19.8600,-0.0228
19.8640,-0.0479
19.8680,-0.0056
19.8720,-0.0300
19.8760,-0.0361
19.8800,-0.0118
19.8840,-0.0181
19.8880,-0.0146
19.8920,0.0088
19.8960,0.0038
19.9000,0.0360
19.9040,0.0435
19.9080,0.0622
19.9120,0.0303
19.9160,0.0643
19.9200,0.0764
19.9240,0.0933
19.9280,0.0763
19.9320,0.0718
19.9360,0.0426
19.9400,0.0496
19.9440,0.0904
19.9480,0.0323
19.9520,-0.0019
19.9560,-0.0056
19.9600,-0.0228
19.9640,-0.0157
19.9680,-0.0112
19.9720,-0.0681
19.9760,-0.0503
19.9800,-0.0486
19.9840,-0.0197
19.9880,-0.0647
19.9920,-0.0568
19.9960,-0.0767
20.0000,-0.0503
20.0040,-0.0343
20.0080,-0.0434
20.0120,-0.0327
20.0160,-0.1051
20.0200,-0.0725
20.0240,-0.0553
20.0280,-0.1098
20.0320,-0.1246
20.0360,-0.1834
20.0400,-0.1428
20.0440,-0.1204
20.0480,-0.0972
20.0520,-0.0388
20.0560,0.0504
20.0600,0.2234
20.0640,0.4541
20.0680,0.7259
20.0720,0.8531
20.0760,0.9164
20.0800,0.8028
20.0840,0.6220
20.0880,0.4216
20.0920,0.1000
20.0960,-0.1009
20.1000,-0.2189
20.1040,-0.2824
20.1080,-0.2811
20.1120,-0.2674
20.1160,-0.2026
20.1200,-0.1368
20.1240,-0.0520
20.1280,-0.0703
20.1320,-0.0949
20.1360,-0.0526
20.1400,-0.0631
20.1440,-0.0621
20.1480,-0.0718
20.1520,-0.0628
20.1560,-0.0860
20.1600,-0.0672
20.1640,-0.0353
20.1680,-0.0504
20.1720,-0.0742
20.1760,-0.1077
20.1800,-0.0784
20.1840,-0.0977
20.1880,-0.0750
20.1920,-0.0770
20.1960,-0.0877
20.2000,-0.0559
20.2040,-0.0604
20.2080,-0.0624
20.2120,-0.0715
20.2160,-0.0527
20.2200,-0.0638
20.2240,-0.0488
20.2280,-0.0476
20.2320,-0.0633
20.2360,-0.0444
20.2400,-0.0503
20.2440,0.0106
20.2480,-0.0031
20.2520,-0.0051
20.2560,0.0170
20.2600,0.0277
20.2640,0.0568
20.2680,0.0706
20.2720,0.0667
20.2760,0.0631
20.2800,0.0823
20.2840,0.1338
20.2880,0.1654
20.2920,0.1614
20.2960,0.1703
20.3000,0.1791
20.3040,0.2252
20.3080,0.2122
20.3120,0.2182
20.3160,0.1788
20.3200,0.1950
20.3240,0.2296
20.3280,0.2084
20.3320,0.1589
20.3360,0.1654
20.3400,0.1722
20.3440,0.1821
20.3480,0.1446
20.3520,0.0970
20.3560,0.0896
20.3600,0.0386
20.3640,0.0913
20.3680,0.0229
20.3720,0.0232
20.3760,0.0046
20.3800,-0.0276
20.3840,-0.0026
20.3880,-0.0256
20.3920,-0.0562
20.3960,-0.0567
20.4000,-0.0662
20.4040,-0.0383
20.4080,-0.0760
20.4120,-0.0643
20.4160,-0.1037
20.4200,-0.0992
20.4240,-0.0854
20.4280,-0.0770
20.4320,-0.0981
20.4360,-0.1086
20.4400,-0.0967
20.4440,-0.0843
20.4480,-0.0970
20.4520,-0.1323
20.4560,-0.1321
20.4600,-0.0937
20.4640,-0.0826
20.4680,-0.0873
20.4720,-0.0922
20.4760,-0.1123
20.4800,-0.0884
20.4840,-0.0718
20.4880,-0.1038
20.4920,-0.0975
20.4960,-0.0896
20.5000,-0.0953
20.5040,-0.1038
20.5080,-0.1196
20.5120,-0.1107
20.5160,-0.0998
20.5200,-0.0973
20.5240,-0.0786
20.5280,-0.1004
20.5320,-0.1276
20.5360,-0.1114
20.5400,-0.1002
20.5440,-0.0716
20.5480,-0.0782
20.5520,-0.1024
20.5560,-0.1260
20.5600,-0.1321
20.5640,-0.1007
20.5680,-0.1247
20.5720,-0.1096
20.5760,-0.0945
20.5800,-0.1083
20.5840,-0.0948
20.5880,-0.0788
20.5920,-0.0827
20.5960,-0.1221
20.6000,-0.1041
20.6040,-0.0784
20.6080,-0.1112
20.6120,-0.1046
20.6160,-0.1472
20.6200,-0.1279
20.6240,-0.1085
20.6280,-0.0752
20.6320,-0.0999
20.6360,-0.1624
20.6400,-0.1015
20.6440,-0.1000
20.6480,-0.0873
20.6520,-0.1118
20.6560,-0.0893
20.6600,-0.0994
20.6640,-0.0892
20.6680,-0.0686
20.6720,-0.1071
20.6760,-0.0884
20.6800,-0.0967
20.6840,-0.0631
20.6880,-0.0321
20.6920,-0.0615
20.6960,-0.0398
20.7000,-0.0167
20.7040,0.0186
20.7080,0.0016
20.7120,0.0346
20.7160,-0.0034
20.7200,-0.0305
20.7240,-0.0073
20.7280,-0.0276
20.7320,-0.0158
20.7360,-0.0577
20.7400,-0.0710
20.7440,-0.0421
20.7480,-0.0763
20.7520,-0.0988
20.7560,-0.0904
20.7600,-0.1156
20.7640,-0.0761
20.7680,-0.1056
20.7720,-0.1204
20.7760,-0.1181
20.7800,-0.1067
20.7840,-0.1345
20.7880,-0.0937
20.7920,-0.1128
20.7960,-0.1248
20.8000,-0.1143
20.8040,-0.1368
20.8080,-0.0945
20.8120,-0.1058
20.8160,-0.1661
20.8200,-0.1574
20.8240,-0.1348
20.8280,-0.1683
20.8320,-0.2189
20.8360,-0.1954
20.8400,-0.1754
20.8440,-0.0913
20.8480,-0.0253
20.8520,0.0995
20.8560,0.2774
20.8600,0.4973
20.8640,0.7386
20.8680,0.8746
20.8720,0.8482
20.8760,0.7219
20.8800,0.4628
20.8840,0.1928
20.8880,-0.0027
20.8920,-0.1790
20.8960,-0.2966
20.9000,-0.3178
20.9040,-0.2899
20.9080,-0.2407
20.9120,-0.2286
20.9160,-0.1804
20.9200,-0.1121
20.9240,-0.0953
20.9280,-0.1134
20.9320,-0.1174
20.9360,-0.1283
20.9400,-0.1233
20.9440,-0.1024
20.9480,-0.1177
20.9520,-0.1227
20.9560,-0.1107
20.9600,-0.1071
20.9640,-0.0840
20.9680,-0.1286
20.9720,-0.1409
20.9760,-0.1212
20.9800,-0.1312
20.9840,-0.0949
20.9880,-0.0679
20.9920,-0.1244
20.9960,-0.1135
21.0000,-0.1142
21.0040,-0.0862
21.0080,-0.1093
21.0120,-0.0863
21.0160,-0.1020
21.0200,-0.0714
21.0240,-0.1001
21.0280,-0.0912
21.0320,-0.0778
21.0360,-0.0980
21.0400,-0.0622
21.0440,-0.0492
21.0480,-0.0281
21.0520,-0.0349
21.0560,0.0017
21.0600,-0.0274
21.0640,0.0268
21.0680,0.0545
21.0720,0.0519
21.0760,0.0714
21.0800,0.0746
21.0840,0.1130
21.0880,0.1181
21.0920,0.1440
21.0960,0.1400
21.1000,0.1558
21.1040,0.2005
21.1080,0.2032
21.1120,0.1750
21.1160,0.1874
21.1200,0.1782
21.1240,0.1809
21.1280,0.1712
21.1320,0.1618
21.1360,0.1594
21.1400,0.1523
21.1440,0.1535
21.1480,0.1357
21.1520,0.0898
21.1560,0.0810
21.1600,0.0775
21.1640,0.0381
21.1680,0.0507
21.1720,0.0008
21.1760,0.0146
21.1800,-0.0241
21.1840,-0.0316
21.1880,-0.0285
21.1920,-0.0245
21.1960,-0.0665
21.2000,-0.0530
21.2040,-0.0579
21.2080,-0.0539
21.2120,-0.0899
21.2160,-0.0701
21.2200,-0.0774
21.2240,-0.0811
21.2280,-0.0757
21.2320,-0.0945
21.2360,-0.0900
21.2400,-0.1280
21.2440,-0.0835
21.2480,-0.0918
21.2520,-0.0956
21.2560,-0.0974
21.2600,-0.0734
21.2640,-0.0803
21.2680,-0.0731
21.2720,-0.1126
21.2760,-0.1022
21.2800,-0.1035
21.2840,-0.0996
21.2880,-0.0772
21.2920,-0.1003
21.2960,-0.1097
21.3000,-0.0964
21.3040,-0.1061
21.3080,-0.1104
21.3120,-0.0817
21.3160,-0.0700
21.3200,-0.1000
21.3240,-0.0952
21.3280,-0.0889
21.3320,-0.1074
21.3360,-0.1277
21.3400,-0.0889
21.3440,-0.0842
21.3480,-0.1157
21.3520,-0.0826
21.3560,-0.1095
21.3600,-0.1237
21.3640,-0.0720
21.3680,-0.0915
21.3720,-0.0882
21.3760,-0.1167
21.3800,-0.0770
21.3840,-0.0776
21.3880,-0.1057
21.3920,-0.0839
21.3960,-0.1106
21.4000,-0.0823
21.4040,-0.0737
21.4080,-0.0967
21.4120,-0.0840
21.4160,-0.0710
21.4200,-0.1059
21.4240,-0.0781
21.4280,-0.0931
21.4320,-0.0784
21.4360,-0.1127
21.4400,-0.0981
21.4440,-0.1051
21.4480,-0.0742
21.4520,-0.0911
21.4560,-0.0803
21.4600,-0.0652
21.4640,-0.0821
21.4680,-0.0960
21.4720,-0.0872
21.4760,-0.0674
21.4800,-0.0762
21.4840,-0.0807
21.4880,-0.0494
21.4920,-0.0919
21.4960,-0.0782
21.5000,-0.0902
21.5040,-0.0614
21.5080,-0.0460
21.5120,-0.0540
21.5160,-0.0627
21.5200,-0.0281
21.5240,-0.0008
21.5280,0.0229
21.5320,-0.0039
21.5360,0.0076
21.5400,-0.0010
21.5440,0.0506
21.5480,0.0331
21.5520,0.0312
21.5560,0.0172
21.5600,0.0168
21.5640,0.0237
21.5680,0.0125
21.5720,-0.0290
21.5760,-0.0230
21.5800,-0.0355
21.5840,-0.0466
21.5880,-0.0774
21.5920,-0.0641
21.5960,-0.0654
21.6000,-0.0876
21.6040,-0.0793
21.6080,-0.0808
21.6120,-0.0786
21.6160,-0.0622
21.6200,-0.0812
21.6240,-0.0657
21.6280,-0.0711
21.6320,-0.1010
21.6360,-0.0701
21.6400,-0.0506
21.6440,-0.0552
21.6480,-0.0466
21.6520,-0.0750
21.6560,-0.0468
21.6600,-0.0938
21.6640,-0.1286
21.6680,-0.1385
21.6720,-0.1553
21.6760,-0.1660
21.6800,-0.1247
21.6840,-0.0528
21.6880,-0.0039
21.6920,0.1207
21.6960,0.3353
21.7000,0.5816
21.7040,0.7858
21.7080,0.9354
21.7120,0.8975
21.7160,0.7431
21.7200,0.4977
21.7240,0.2634
21.7280,0.0688
21.7320,-0.1662
21.7360,-0.2200
21.7400,-0.2821
21.7440,-0.2460
21.7480,-0.1735
21.7520,-0.1426
21.7560,-0.1042
21.7600,-0.0848
21.7640,-0.0845
21.7680,-0.0841
21.7720,-0.0851
21.7760,-0.0617
21.7800,-0.0578
21.7840,-0.0544
21.7880,-0.0515
21.7920,-0.0849
21.7960,-0.0454
21.8000,-0.0557
21.8040,-0.0705
21.8080,-0.0482
21.8120,-0.0599
21.8160,-0.0535
21.8200,-0.0364
21.8240,-0.0317
21.8280,-0.0671
21.8320,-0.0558
21.8360,-0.0730
21.8400,-0.0525
21.8440,-0.0330
21.8480,-0.0217
21.8520,-0.0627
21.8560,-0.0721
21.8600,-0.0466
21.8640,-0.0052
21.8680,0.0099
21.8720,-0.0705
21.8760,-0.0279
21.8800,0.0106
21.8840,0.0027
21.8880,0.0138
21.8920,-0.0179
21.8960,0.0091
21.9000,0.0286
21.9040,0.0860
21.9080,0.0941
21.9120,0.0841
21.9160,0.0859
21.9200,0.1086
21.9240,0.1456
21.9280,0.1559
21.9320,0.1744
21.9360,0.1691
21.9400,0.2047
21.9440,0.2299
21.9480,0.2372
21.9520,0.2307
21.9560,0.2379
21.9600,0.2511
21.9640,0.2862
21.9680,0.2665
21.9720,0.2602
21.9760,0.2369
21.9800,0.2431
21.9840,0.2271
21.9880,0.2280
21.9920,0.2105
21.9960,0.1837
22.0000,0.1969
22.0040,0.1895
22.0080,0.1470
22.0120,0.1578
22.0160,0.1144
22.0200,0.0897
22.0240,0.1121
22.0280,0.1103
22.0320,0.0434
22.0360,0.0261
22.0400,0.0547
22.0440,0.0254
22.0480,0.0439
22.0520,-0.0129
22.0560,-0.0233
22.0600,0.0040
22.0640,-0.0049
22.0680,0.0102
22.0720,0.0035
22.0760,-0.0453
22.0800,-0.0237
22.0840,-0.0087
22.0880,-0.0180
22.0920,-0.0184
22.0960,-0.0445
22.1000,-0.0253
22.1040,0.0067
22.1080,0.0041
22.1120,-0.0496
22.1160,-0.0210
22.1200,-0.0121
22.1240,-0.0218
22.1280,-0.0119
22.1320,-0.0541
22.1360,-0.0219
22.1400,-0.0479
22.1440,0.0030
22.1480,-0.0361
22.1520,-0.0314
22.1560,-0.0247
22.1600,0.0032
22.1640,-0.0004
22.1680,-0.0316
22.1720,-0.0209
22.1760,-0.0340
22.1800,-0.0292
22.1840,-0.0258
22.1880,-0.0151
22.1920,-0.0250
22.1960,-0.0401
22.2000,-0.0231
22.2040,0.0179
22.2080,-0.0271
22.2120,-0.0409
22.2160,-0.0406
22.2200,-0.0481
22.2240,-0.0332
22.2280,0.0130
22.2320,-0.0389
22.2360,-0.0320
22.2400,0.0104
22.2440,0.0027
22.2480,-0.0099
22.2520,-0.0120
22.2560,-0.0173
22.2600,-0.0447
22.2640,0.0197
22.2680,-0.0200
22.2720,-0.0139
22.2760,-0.0043
22.2800,-0.0021
22.2840,-0.0194
22.2880,0.0021
22.2920,0.0025
22.2960,-0.0178
22.3000,-0.0051
22.3040,0.0054
22.3080,-0.0107
22.3120,-0.0329
22.3160,-0.0142
22.3200,-0.0236
22.3240,-0.0136
22.3280,-0.0084
22.3320,-0.0186
22.3360,-0.0210
22.3400,-0.0201
22.3440,0.0173
22.3480,-0.0333
22.3520,-0.0286
22.3560,-0.0116
22.3600,-0.0017
22.3640,0.0119
22.3680,0.0183
22.3720,-0.0226
22.3760,-0.0179
22.3800,-0.0090
22.3840,-0.0010
22.3880,-0.0193
22.3920,-0.0044
22.3960,0.0025
22.4000,0.0003
22.4040,0.0107
22.4080,0.0214
22.4120,-0.0008
22.4160,-0.0194
22.4200,0.0301
22.4240,0.0435
22.4280,0.0438
22.4320,0.0219
22.4360,0.0558
22.4400,0.1008
22.4440,0.1248
22.4480,0.1013
22.4520,0.1086
22.4560,0.0869
22.4600,0.1301
22.4640,0.1271
22.4680,0.1270
22.4720,0.0837
22.4760,0.0803
22.4800,0.1203
22.4840,0.0898
22.4880,0.0698
22.4920,0.0410
22.4960,0.0091
22.5000,0.0485
22.5040,0.0454
22.5080,0.0405
22.5120,0.0193
22.5160,0.0065
22.5200,0.0111
22.5240,0.0193
22.5280,-0.0044
22.5320,0.0212
22.5360,-0.0100
22.5400,-0.0286
22.5440,0.0258
22.5480,0.0268
22.5520,-0.0132
22.5560,0.0358
22.5600,0.0084
22.5640,0.0335
22.5680,-0.0061
22.5720,-0.0177
22.5760,-0.0614
22.5800,-0.0752
22.5840,-0.0593
22.5880,-0.0687
22.5920,-0.0151
22.5960,0.0535
22.6000,0.1667
22.6040,0.3543
22.6080,0.5762
22.6120,0.7698
22.6160,0.9807
22.6200,1.0166
22.6240,0.8891
22.6280,0.6815
22.6320,0.3938
22.6360,0.1748
22.6400,-0.0279
22.6440,-0.0959
22.6480,-0.1830
22.6520,-0.1919
22.6560,-0.1395
22.6600,-0.0719
22.6640,0.0035
22.6680,0.0148
22.6720,0.0466
22.6760,0.0062
22.6800,0.0283
22.6840,0.0470
22.6880,0.0169
22.6920,0.0499
22.6960,0.0182
22.7000,0.0262
22.7040,0.0554
22.7080,0.0290
22.7120,0.0072
22.7160,-0.0002
22.7200,0.0407
22.7240,0.0093
22.7280,0.0358
22.7320,-0.0049
22.7360,-0.0070
22.7400,0.0487
22.7440,0.0321
22.7480,0.0156
22.7520,0.0194
22.7560,0.0457
22.7600,0.0437
22.7640,0.0592
22.7680,0.0350
22.7720,0.0608
22.7760,0.0458
22.7800,0.0488
22.7840,0.0963
22.7880,0.0457
22.7920,0.0846
22.7960,0.0953
22.8000,0.1162
22.8040,0.1300
22.8080,0.1410
22.8120,0.1359
22.8160,0.1615
22.8200,0.1832
22.8240,0.1639
22.8280,0.2114
22.8320,0.1961
22.8360,0.2510
22.8400,0.2432
22.8440,0.3193
22.8480,0.2970
22.8520,0.3100
22.8560,0.3068
22.8600,0.3169
22.8640,0.3260
22.8680,0.3228
22.8720,0.3339
22.8760,0.3183
22.8800,0.3209
22.8840,0.3361
22.8880,0.3192
22.8920,0.2751
22.8960,0.2785
22.9000,0.2775
22.9040,0.2653
22.9080,0.2423
22.9120,0.2469
22.9160,0.2151
22.9200,0.1933
22.9240,0.2026
22.9280,0.1536
22.9320,0.1365
22.9360,0.1342
22.9400,0.1272
22.9440,0.1102
22.9480,0.0840
22.9520,0.0956
22.9560,0.0634
22.9600,0.0746
22.9640,0.0835
22.9680,0.0697
22.9720,0.0715
22.9760,0.0390
22.9800,0.0394
22.9840,0.0782
22.9880,0.0741
22.9920,0.0424
22.9960,0.0586
23.0000,0.0403
23.0040,0.0423
23.0080,0.0539
23.0120,0.0466
23.0160,0.0350
23.0200,0.0417
23.0240,0.0781
23.0280,0.0649
23.0320,0.0513
23.0360,0.0396
23.0400,0.0341
23.0440,0.0802
23.0480,0.0666
23.0520,0.0498
23.0560,0.0728
23.0600,0.0372
23.0640,0.0398
23.0680,0.0172
23.0720,0.0507
23.0760,0.0462
23.0800,0.0366
23.0840,0.0440
23.0880,0.0623
23.0920,0.0284
23.0960,0.0420
23.1000,0.0583
23.1040,0.0534
23.1080,0.0567
23.1120,0.0570
23.1160,0.0444
23.1200,0.0274
23.1240,0.0437
23.1280,0.0663
23.1320,0.0041
23.1360,0.0337
23.1400,0.0516
23.1440,0.0525
23.1480,0.0395
23.1520,0.0152
23.1560,0.0374
23.1600,0.0581
23.1640,0.0487
23.1680,0.0787
23.1720,0.0295
23.1760,0.0484
23.1800,0.0746
23.1840,0.0615
23.1880,0.0329
23.1920,0.0329
23.1960,0.0530
23.2000,0.0367
23.2040,0.0749
23.2080,0.0548
23.2120,0.0416
23.2160,0.0538
23.2200,0.0196
23.2240,0.0753
23.2280,0.0615
23.2320,0.0152
23.2360,0.0552
23.2400,0.0636
23.2440,0.0494
23.2480,0.0529
23.2520,0.0374
23.2560,0.0240
23.2600,0.0421
23.2640,0.0534
23.2680,0.0596
23.2720,0.0391
23.2760,0.0522
23.2800,0.0351
23.2840,0.0643
23.2880,0.0702
23.2920,0.0680
23.2960,0.0603
23.3000,0.0552
23.3040,0.0638
23.3080,0.0901
23.3120,0.0681
23.3160,0.0845
23.3200,0.0963
23.3240,0.1328
23.3280,0.1247
23.3320,0.1260
23.3360,0.1539
23.3400,0.1757
23.3440,0.1843
23.3480,0.1941
23.3520,0.1553
23.3560,0.1423
23.3600,0.1705
23.3640,0.1723
23.3680,0.1528
23.3720,0.0926
23.3760,0.0814
23.3800,0.1040
23.3840,0.1034
23.3880,0.0780
23.3920,0.0763
23.3960,0.0554
23.4000,0.0575
23.4040,0.0856
23.4080,0.0628
23.4120,0.0533
23.4160,0.0311
23.4200,0.0737
23.4240,0.0474
23.4280,0.0557
23.4320,0.0425
23.4360,0.0770
23.4400,0.0367
23.4440,0.0916
23.4480,0.0482
23.4520,0.0194
23.4560,-0.0004
23.4600,-0.0202
23.4640,-0.0171
23.4680,-0.0570
23.4720,-0.0205
23.4760,0.0217
23.4800,0.1017
23.4840,0.2101
23.4880,0.3957
23.4920,0.5894
23.4960,0.8394
23.5000,0.9989
23.5040,1.0730
23.5080,0.9567
23.5120,0.7035
23.5160,0.4351
23.5200,0.2245
23.5240,0.0543
23.5280,-0.0922
23.5320,-0.1579
23.5360,-0.1457
23.5400,-0.1048
23.5440,-0.0579
23.5480,0.0309
23.5520,0.0340
23.5560,0.0368
23.5600,0.0487
23.5640,0.0839
23.5680,0.0886
23.5720,0.0486
23.5760,0.0448
23.5800,0.0600
23.5840,0.0842
23.5880,0.0548
23.5920,0.0801
23.5960,0.0440
23.6000,0.0972
23.6040,0.0446
23.6080,0.0547
23.6120,0.0487
23.6160,0.0517
23.6200,0.1053
23.6240,0.0655
23.6280,0.0835
23.6320,0.0652
23.6360,0.0500
23.6400,0.0634
23.6440,0.0872
23.6480,0.0764
23.6520,0.0723
23.6560,0.0726
23.6600,0.0873
23.6640,0.1009
23.6680,0.1168
23.6720,0.1145
23.6760,0.1225
23.6800,0.1338
23.6840,0.1381
23.6880,0.1701
23.6920,0.1689
23.6960,0.1868
23.7000,0.1915
23.7040,0.2326
23.7080,0.2533
23.7120,0.2556
23.7160,0.2896
23.7200,0.3091
23.7240,0.3136
23.7280,0.3560
23.7320,0.3470
23.7360,0.3156
23.7400,0.3666
23.7440,0.3698
23.7480,0.3637
23.7520,0.3648
23.7560,0.3485
23.7600,0.3479
23.7640,0.3400
23.7680,0.3312
23.7720,0.3217
23.7760,0.3177
23.7800,0.2956
23.7840,0.2502
23.7880,0.2522
23.7920,0.1804
23.7960,0.1766
23.8000,0.1978
23.8040,0.1592
23.8080,0.1459
23.8120,0.1339
23.8160,0.1118
23.8200,0.1252
23.8240,0.0962
23.8280,0.1078
23.8320,0.0736
23.8360,0.0446
23.8400,0.0897
23.8440,0.0763
23.8480,0.0729
23.8520,0.0408
23.8560,0.0413
23.8600,0.0643
23.8640,0.0984
23.8680,0.0724
23.8720,0.0405
23.8760,0.0494
23.8800,0.1040
23.8840,0.0677
23.8880,0.0544
23.8920,0.0678
23.8960,0.0231
23.9000,0.0967
23.9040,0.0634
23.9080,0.0665
23.9120,0.0576
23.9160,0.0394
23.9200,0.0717
23.9240,0.0716
23.9280,0.0607
23.9320,0.0523
23.9360,0.0429
23.9400,0.0718
23.9440,0.0746
23.9480,0.0637
23.9520,0.0835
23.9560,0.0264
23.9600,0.0550
23.9640,0.1048
23.9680,0.0492
23.9720,0.0378
23.9760,0.0460
23.9800,0.0406
23.9840,0.0569
23.9880,0.0601
23.9920,0.0293
23.9960,0.0444
24.0000,0.0531
24.0040,0.0726
24.0080,0.0706
24.0120,0.0500
24.0160,0.0126
24.0200,0.0312
24.0240,0.0596
24.0280,0.0742
24.0320,0.0576
24.0360,0.0409
24.0400,0.0492
24.0440,0.0520
24.0480,0.0423
24.0520,0.0259
24.0560,0.0504
24.0600,0.0755
24.0640,0.0720
24.0680,0.0561
24.0720,0.0440
24.0760,0.0441
24.0800,0.0532
24.0840,0.0770
24.0880,0.0437
24.0920,0.0533
24.0960,0.0445
24.1000,0.0715
24.1040,0.0708
24.1080,0.0949
24.1120,0.0537
24.1160,0.0590
24.1200,0.0658
24.1240,0.0839
24.1280,0.0855
24.1320,0.0767
24.1360,0.0761
24.1400,0.1250
24.1440,0.1468
24.1480,0.1603
24.1520,0.1577
24.1560,0.1306
24.1600,0.1723
24.1640,0.1836
24.1680,0.1779
24.1720,0.2055
24.1760,0.1804
24.1800,0.1461
24.1840,0.1782
24.1880,0.1533
24.1920,0.1002
24.1960,0.0771
24.2000,0.0981
24.2040,0.1117
24.2080,0.0729
24.2120,0.0633
24.2160,0.0815
24.2200,0.0752
24.2240,0.0744
24.2280,0.0549
24.2320,0.0522
24.2360,0.0426
24.2400,0.0485
24.2440,0.0800
24.2480,0.0617
24.2520,0.0533
24.2560,0.0595
24.2600,0.0537
24.2640,0.0679
24.2680,0.0440
24.2720,0.0243
24.2760,-0.0024
24.2800,-0.0481
24.2840,-0.0423
24.2880,-0.0369
24.2920,-0.0146
24.2960,0.0302
24.3000,0.1143
24.3040,0.2268
24.3080,0.3763
24.3120,0.6010
24.3160,0.8583
24.3200,1.0023
24.3240,1.0515
24.3280,0.9260
24.3320,0.6636
24.3360,0.4261
24.3400,0.1757
24.3440,0.0161
24.3480,-0.0981
24.3520,-0.1294
24.3560,-0.1521
24.3600,-0.1080
24.3640,-0.0216
24.3680,0.0120
24.3720,0.0254
24.3760,0.0372
24.3800,0.0575
24.3840,0.0519
24.3880,0.0841
24.3920,0.0234
24.3960,0.0699
24.4000,0.0797
24.4040,0.0403
24.4080,0.0602
24.4120,0.0633
24.4160,0.0665
24.4200,0.0452
24.4240,0.0653
24.4280,0.0773
24.4320,0.0625
24.4360,0.0347
24.4400,0.0562
24.4440,0.0721
24.4480,0.0653
24.4520,0.0329
24.4560,0.0394
24.4600,0.0480
24.4640,0.0601
24.4680,0.0553
24.4720,0.0494
24.4760,0.0805
24.4800,0.0702
24.4840,0.0773
24.4880,0.0947
24.4920,0.0765
24.4960,0.0916
24.5000,0.1128
24.5040,0.1215
24.5080,0.1498
24.5120,0.1314
24.5160,0.2065
24.5200,0.1810
24.5240,0.2057
24.5280,0.2269
24.5320,0.2414
24.5360,0.2407
24.5400,0.2906
24.5440,0.2865
24.5480,0.3077
24.5520,0.3098
24.5560,0.3273
24.5600,0.3154
24.5640,0.3428
24.5680,0.3526
24.5720,0.3567
24.5760,0.3210
24.5800,0.3190
24.5840,0.3329
24.5880,0.3156
24.5920,0.3212
24.5960,0.2918
24.6000,0.3105
24.6040,0.2697
24.6080,0.2538
24.6120,0.2336
24.6160,0.2205
24.6200,0.1784
24.6240,0.1974
24.6280,0.1593
24.6320,0.1550
24.6360,0.1153
24.6400,0.1228
24.6440,0.1249
24.6480,0.1043
24.6520,0.0714
24.6560,0.0840
24.6600,0.0999
24.6640,0.0736
24.6680,0.0892
24.6720,0.0424
24.6760,0.0815
24.6800,0.0694
24.6840,0.0472
24.6880,0.0406
24.6920,0.0474
24.6960,0.0376
24.7000,0.0362
24.7040,0.0163
24.7080,0.0412
24.7120,0.0133
24.7160,0.0235
24.7200,0.0640
24.7240,0.0343
24.7280,0.0482
24.7320,0.0338
24.7360,0.0393
24.7400,0.0324
24.7440,0.0629
24.7480,0.0767
24.7520,0.0478
24.7560,0.0477
24.7600,0.0416
24.7640,0.0654
24.7680,0.0182
24.7720,0.0345
24.7760,0.0502
24.7800,0.0546
24.7840,0.0546
24.7880,0.0473
24.7920,0.0477
24.7960,0.0406
24.8000,0.0261
24.8040,0.0442
24.8080,0.0368
24.8120,0.0375
24.8160,0.0469
24.8200,0.0471
24.8240,0.0516
24.8280,0.0362
24.8320,0.0315
24.8360,-0.0107
24.8400,0.0462
24.8440,0.0541
24.8480,0.0203
24.8520,0.0230
24.8560,0.0322
24.8600,0.0313
24.8640,0.0495
24.8680,0.0522
24.8720,0.0477
24.8760,0.0413
24.8800,0.0598
24.8840,0.0548
24.8880,0.0458
24.8920,0.0188
24.8960,0.0466
24.9000,0.0479
24.9040,0.0370
24.9080,0.0641
24.9120,0.0518
24.9160,0.0593
24.9200,0.0580
24.9240,0.0626
24.9280,0.0514
24.9320,0.0183
24.9360,0.0239
24.9400,0.0384
24.9440,0.0682
24.9480,0.0292
24.9520,0.0235
24.9560,0.0218
24.9600,0.0319
24.9640,0.0675
24.9680,0.0817
24.9720,0.0765
24.9760,0.0434
24.9800,0.1003
24.9840,0.0936
24.9880,0.1037
24.9920,0.1183
24.9960,0.0921
25.0000,0.1551
25.0040,0.1774
25.0080,0.1635
25.0120,0.1377
25.0160,0.1332
25.0200,0.1659
25.0240,0.1451
25.0280,0.1555
25.0320,0.1131
25.0360,0.1150
25.0400,0.1018
25.0440,0.0938
25.0480,0.1092
25.0520,0.0552
25.0560,0.0615
25.0600,0.0585
25.0640,0.0631
25.0680,0.0475
25.0720,0.0446
25.0760,0.0143
25.0800,0.0472
25.0840,0.0472
25.0880,0.0189
25.0920,0.0379
25.0960,0.0259
25.1000,0.0035
25.1040,0.0331
25.1080,0.0482
25.1120,0.0223
25.1160,0.0124
25.1200,0.0095
25.1240,0.0232
25.1280,-0.0318
25.1320,-0.0858
25.1360,-0.0797
25.1400,-0.0805
25.1440,0.0424
25.1480,0.0556
25.1520,0.1296
25.1560,0.2669
25.1600,0.5212
25.1640,0.7771
25.1680,0.9441
25.1720,1.0001
25.1760,0.9449
25.1800,0.7574
25.1840,0.5147
25.1880,0.2806
25.1920,0.0421
25.1960,-0.0951
25.2000,-0.1604
25.2040,-0.1476
25.2080,-0.1551
25.2120,-0.0907
25.2160,-0.0553
25.2200,-0.0025
25.2240,0.0363
25.2280,0.0372
25.2320,0.0273
25.2360,0.0285
25.2400,0.0585
25.2440,0.0598
25.2480,0.0734
25.2520,0.0084
25.2560,0.0500
25.2600,0.0261
25.2640,0.0459
25.2680,0.0294
25.2720,0.0297
25.2760,0.0342
25.2800,0.0307
25.2840,0.0387
25.2880,0.0320
25.2920,0.0192
25.2960,0.0239
25.3000,0.0526
25.3040,0.0398
25.3080,0.0389
25.3120,0.0556
25.3160,0.0355
25.3200,0.0561
25.3240,0.0476
25.3280,0.0582
25.3320,0.0691
25.3360,0.0233
25.3400,0.0658
25.3440,0.0876
25.3480,0.0788
25.3520,0.1050
25.3560,0.0969
25.3600,0.1199
25.3640,0.1322
25.3680,0.1379
25.3720,0.1555
25.3760,0.1683
25.3800,0.1870
25.3840,0.2301
25.3880,0.2318
25.3920,0.2619
25.3960,0.2471
25.4000,0.2655
25.4040,0.3156
25.4080,0.3164
25.4120,0.3094
25.4160,0.3053
25.4200,0.3210
25.4240,0.3209
25.4280,0.3569
25.4320,0.3681
25.4360,0.3154
25.4400,0.3043
25.4440,0.2808
25.4480,0.2794
25.4520,0.2923
25.4560,0.2611
25.4600,0.2365
25.4640,0.2583
25.4680,0.1999
25.4720,0.1801
25.4760,0.1619
25.4800,0.1574
25.4840,0.1440
25.4880,0.1495
25.4920,0.1326
25.4960,0.0939
25.5000,0.0932
25.5040,0.1145
25.5080,0.0965
25.5120,0.0552
25.5160,0.0466
25.5200,0.0473
25.5240,0.0465
25.5280,0.0727
25.5320,0.0441
25.5360,0.0271
25.5400,0.0473
25.5440,0.0651
25.5480,0.0530
25.5520,0.0223
25.5560,-0.0066
25.5600,0.0038
25.5640,0.0344
25.5680,0.0454
25.5720,0.0323
25.5760,0.0324
25.5800,0.0351
25.5840,0.0522
25.5880,0.0517
25.5920,0.0275
25.5960,0.0544
25.6000,0.0037
25.6040,0.0582
25.6080,0.0401
25.6120,0.0168
25.6160,0.0281
25.6200,0.0249
25.6240,0.0203
25.6280,0.0197
25.6320,-0.0013
25.6360,-0.0001
25.6400,0.0225
25.6440,0.0093
25.6480,0.0334
25.6520,0.0023
25.6560,0.0440
25.6600,0.0253
25.6640,0.0466
25.6680,0.0433
25.6720,0.0214
25.6760,0.0061
25.6800,0.0376
25.6840,0.0188
25.6880,0.0155
25.6920,0.0222
25.6960,0.0036
25.7000,0.0136
25.7040,0.0190
25.7080,0.0542
25.7120,0.0357
25.7160,-0.0052
25.7200,0.0159
25.7240,0.0257
25.7280,0.0193
25.7320,0.0126
25.7360,0.0344
25.7400,0.0557
25.7440,0.0318
25.7480,0.0268
25.7520,0.0012
25.7560,0.0072
25.7600,0.0199
25.7640,0.0212
25.7680,0.0364
25.7720,0.0046
25.7760,0.0243
25.7800,0.0180
25.7840,0.0293
25.7880,0.0120
25.7920,-0.0076
25.7960,0.0241
25.8000,0.0234
25.8040,0.0411
25.8080,0.0235
25.8120,0.0410
25.8160,0.0086
25.8200,-0.0009
25.8240,0.0158
25.8280,0.0328
25.8320,0.0109
25.8360,0.0216
25.8400,0.0020
25.8440,0.0425
25.8480,0.0289
25.8520,0.0244
25.8560,0.0438
25.8600,0.0574
25.8640,0.0749
25.8680,0.0950
25.8720,0.0830
25.8760,0.0797
25.8800,0.0729
25.8840,0.1432
25.8880,0.1151
25.8920,0.1083
25.8960,0.1160
25.9000,0.1353
25.9040,0.1359
25.9080,0.1215
25.9120,0.0887
25.9160,0.1043
25.9200,0.0894
25.9240,0.0852
25.9280,0.0969
25.9320,0.0378
25.9360,0.0081
25.9400,0.0159
25.9440,0.0376
25.9480,0.0548
25.9520,0.0030
25.9560,0.0116
25.9600,-0.0128
25.9640,0.0153
25.9680,0.0141
25.9720,-0.0177
25.9760,-0.0208
25.9800,-0.0026
25.9840,0.0239
25.9880,0.0079
25.9920,0.0222
25.9960,-0.0163
26.0000,0.0145
26.0040,-0.0087
26.0080,-0.0210
26.0120,-0.0697
26.0160,-0.0980
26.0200,-0.0467
26.0240,-0.0281
26.0280,-0.0212
26.0320,0.0464
26.0360,0.1740
26.0400,0.3858
26.0440,0.5902
26.0480,0.8506
26.0520,0.9751
26.0560,0.9542
26.0600,0.8683
26.0640,0.6010
26.0680,0.3266
26.0720,0.0941
26.0760,-0.0839
26.0800,-0.1598
26.0840,-0.2205
26.0880,-0.1917
26.0920,-0.1427
26.0960,-0.1092
26.1000,-0.0191
26.1040,0.0072
26.1080,0.0178
26.1120,0.0025
26.1160,-0.0053
26.1200,0.0192
26.1240,0.0049
26.1280,0.0115
26.1320,-0.0219
26.1360,0.0216
26.1400,0.0135
26.1440,0.0127
26.1480,0.0048
26.1520,0.0119
26.1560,-0.0305
26.1600,0.0233
26.1640,0.0246
26.1680,0.0115
26.1720,-0.0259
26.1760,-0.0113
26.1800,0.0005
26.1840,-0.0000
26.1880,0.0179
26.1920,-0.0104
26.1960,0.0045
26.2000,-0.0053
26.2040,0.0136
26.2080,0.0393
26.2120,0.0289
26.2160,0.0135
26.2200,0.0467
26.2240,0.0101
26.2280,0.0634
26.2320,0.0494
26.2360,0.0721
26.2400,0.0780
26.2440,0.1125
26.2480,0.1308
26.2520,0.1325
26.2560,0.1539
26.2600,0.1679
26.2640,0.2010
26.2680,0.2025
26.2720,0.2319
26.2760,0.2078
26.2800,0.2436
26.2840,0.2683
26.2880,0.2645
26.2920,0.2616
26.2960,0.2785
26.3000,0.3050
26.3040,0.3236
26.3080,0.2741
26.3120,0.2692
26.3160,0.2673
26.3200,0.2640
26.3240,0.2685
26.3280,0.2551
26.3320,0.2262
26.3360,0.2066
26.3400,0.2274
26.3440,0.1867
26.3480,0.1667
26.3520,0.1276
26.3560,0.1124
26.3600,0.1161
26.3640,0.0995
26.3680,0.0831
26.3720,0.0529
26.3760,0.0716
26.3800,0.0460
26.3840,0.0590
26.3880,0.0441
26.3920,-0.0198
26.3960,-0.0153
26.4000,-0.0096
26.4040,0.0163
26.4080,0.0265
26.4120,-0.0035
26.4160,-0.0186
26.4200,-0.0034
26.4240,0.0101
26.4280,-0.0311
26.4320,-0.0381
26.4360,0.0005
26.4400,-0.0126
26.4440,0.0035
26.4480,-0.0121
26.4520,-0.0023
26.4560,-0.0197
26.4600,-0.0114
26.4640,0.0036
26.4680,0.0169
26.4720,-0.0106
26.4760,-0.0500
26.4800,-0.0294
26.4840,-0.0103
26.4880,-0.0093
26.4920,-0.0313
26.4960,0.0100
26.5000,0.0132
26.5040,0.0016
26.5080,-0.0115
26.5120,-0.0205
26.5160,-0.0576
26.5200,-0.0081
26.5240,0.0016
26.5280,-0.0415
26.5320,-0.0476
26.5360,-0.0264
26.5400,-0.0066
26.5440,-0.0047
26.5480,-0.0139
26.5520,-0.0335
26.5560,-0.0335
26.5600,-0.0133
26.5640,-0.0306
26.5680,-0.0524
26.5720,-0.0220
26.5760,-0.0257
26.5800,-0.0049
26.5840,-0.0326
26.5880,-0.0265
26.5920,-0.0147
26.5960,-0.0343
26.6000,-0.0132
26.6040,-0.0353
26.6080,-0.0113
26.6120,-0.0333
26.6160,-0.0164
26.6200,-0.0131
26.6240,-0.0181
26.6280,-0.0282
26.6320,-0.0272
26.6360,-0.0323
26.6400,-0.0195
26.6440,-0.0397
26.6480,-0.0356
26.6520,-0.0376
26.6560,-0.0380
26.6600,0.0024
26.6640,-0.0146
26.6680,-0.0075
26.6720,-0.0450
26.6760,-0.0065
26.6800,-0.0526
26.6840,-0.0190
26.6880,-0.0150
26.6920,-0.0107
26.6960,-0.0422
26.7000,-0.0547
26.7040,-0.0403
26.7080,-0.0109
26.7120,-0.0142
26.7160,0.0123
26.7200,0.0301
26.7240,0.0345
26.7280,-0.0023
26.7320,0.0390
26.7360,0.0416
26.7400,0.0587
26.7440,0.1075
26.7480,0.1014
26.7520,0.0685
26.7560,0.0774
26.7600,0.1003
26.7640,0.1103
26.7680,0.0899
26.7720,0.0509
26.7760,0.0434
26.7800,0.0412
26.7840,0.0497
26.7880,0.0239
26.7920,-0.0147
26.7960,-0.0395
26.8000,-0.0210
26.8040,-0.0028
26.8080,-0.0386
26.8120,-0.0456
26.8160,-0.0542
26.8200,-0.0357
26.8240,-0.0298
26.8280,-0.0258
26.8320,-0.0525
26.8360,-0.0232
26.8400,-0.0682
26.8440,-0.0113
26.8480,-0.0517
26.8520,-0.0454
26.8560,-0.0592
26.8600,-0.0394
26.8640,-0.0748
26.8680,-0.0960
26.8720,-0.1014
26.8760,-0.1767
26.8800,-0.1528
26.8840,-0.0983
26.8880,-0.0568
26.8920,0.0397
26.8960,0.1103
26.9000,0.2808
26.9040,0.5277
26.9080,0.7562
26.9120,0.8985
26.9160,0.9510
26.9200,0.7949
26.9240,0.5694
26.9280,0.3214
26.9320,0.0733
26.9360,-0.1215
26.9400,-0.2470
26.9440,-0.2289
26.9480,-0.2105
26.9520,-0.1951
26.9560,-0.1494
26.9600,-0.0676
26.9640,-0.0655
26.9680,-0.0408
26.9720,-0.0549
26.9760,-0.0919
26.9800,-0.0528
26.9840,-0.0452
26.9880,-0.0434
26.9920,-0.0456
26.9960,-0.0648
27.0000,-0.0533
27.0040,-0.0652
27.0080,-0.0385
27.0120,-0.0830
27.0160,-0.0529
27.0200,-0.0405
27.0240,-0.0828
27.0280,-0.0569
27.0320,-0.0712
27.0360,-0.0547
27.0400,-0.0606
27.0440,-0.0663
27.0480,-0.0477
27.0520,-0.0604
27.0560,-0.0391
27.0600,-0.0450
27.0640,-0.0372
27.0680,-0.0385
27.0720,-0.0324
27.0760,-0.0289
27.0800,-0.0223
27.0840,-0.0012
27.0880,0.0040
27.0920,-0.0166
27.0960,-0.0045
27.1000,0.0492
27.1040,0.0723
27.1080,0.0726
27.1120,0.0580
27.1160,0.0730
27.1200,0.1331
27.1240,0.1362
27.1280,0.1661
27.1320,0.1362
27.1360,0.1961
27.1400,0.2023
27.1440,0.2239
27.1480,0.2555
27.1520,0.2246
27.1560,0.2061
27.1600,0.2337
27.1640,0.2580
27.1680,0.2609
27.1720,0.2346
27.1760,0.2376
27.1800,0.2354
27.1840,0.2238
27.1880,0.1804
27.1920,0.1685
27.1960,0.1421
27.2000,0.1296
27.2040,0.1381
27.2080,0.1046
27.2120,0.0570
27.2160,0.0553
27.2200,0.0752
27.2240,0.0336
27.2280,0.0299
27.2320,0.0007
27.2360,0.0062
27.2400,-0.0030
27.2440,-0.0032
27.2480,-0.0609
27.2520,-0.0222
27.2560,-0.0448
27.2600,-0.0529
27.2640,-0.0293
27.2680,-0.0705
27.2720,-0.0560
27.2760,-0.0551
27.2800,-0.0486
27.2840,-0.0882
27.2880,-0.0799
27.2920,-0.0602
27.2960,-0.1071
27.3000,-0.0888
27.3040,-0.0621
27.3080,-0.0748
27.3120,-0.0776
27.3160,-0.0589
27.3200,-0.0722
27.3240,-0.0629
27.3280,-0.0420
27.3320,-0.0791
27.3360,-0.0844
27.3400,-0.0676
27.3440,-0.0762
27.3480,-0.0687
27.3520,-0.1162
27.3560,-0.0767
27.3600,-0.0682
27.3640,-0.0730
27.3680,-0.0843
27.3720,-0.0656
27.3760,-0.0744
27.3800,-0.0605
27.3840,-0.0721
27.3880,-0.0429
27.3920,-0.0742
27.3960,-0.0932
27.4000,-0.0865
27.4040,-0.0502
27.4080,-0.1111
27.4120,-0.0621
27.4160,-0.1233
27.4200,-0.0932
27.4240,-0.0730
27.4280,-0.0788
27.4320,-0.1021
27.4360,-0.0864
27.4400,-0.1090
27.4440,-0.0757
27.4480,-0.0648
27.4520,-0.0928
27.4560,-0.0900
27.4600,-0.0680
27.4640,-0.0266
27.4680,-0.0626
27.4720,-0.1022
27.4760,-0.0881
27.4800,-0.0757
27.4840,-0.0701
27.4880,-0.0619
27.4920,-0.0908
27.4960,-0.0990
27.5000,-0.0865
27.5040,-0.0835
27.5080,-0.0866
27.5120,-0.0785
27.5160,-0.0941
27.5200,-0.0812
27.5240,-0.0896
27.5280,-0.0702
27.5320,-0.0783
27.5360,-0.0870
27.5400,-0.0740
27.5440,-0.0724
27.5480,-0.0638
27.5520,-0.0713
27.5560,-0.0788
27.5600,-0.0894
27.5640,-0.0616
27.5680,-0.0306
27.5720,-0.0793
27.5760,-0.0645
27.5800,-0.0940
27.5840,-0.0457
27.5880,-0.0360
27.5920,0.0049
27.5960,-0.0056
27.6000,-0.0097
27.6040,0.0291
27.6080,0.0392
27.6120,0.0079
27.6160,0.0199
27.6200,0.0211
27.6240,0.0515
27.6280,0.0126
27.6320,0.0115
27.6360,-0.0139
27.6400,-0.0411
27.6440,-0.0299
27.6480,-0.0349
27.6520,-0.0841
27.6560,-0.1019
27.6600,-0.0854
27.6640,-0.0805
27.6680,-0.0678
27.6720,-0.0863
27.6760,-0.0976
27.6800,-0.1048
27.6840,-0.0994
27.6880,-0.0796
27.6920,-0.1082
27.6960,-0.0665
27.7000,-0.0718
27.7040,-0.0628
27.7080,-0.0789
27.7120,-0.1201
27.7160,-0.1030
27.7200,-0.1216
27.7240,-0.1345
27.7280,-0.1850
27.7320,-0.1951
27.7360,-0.1811
27.7400,-0.1640
27.7440,-0.0487
27.7480,-0.0051
27.7520,0.1554
27.7560,0.3324
27.7600,0.5964
27.7640,0.8028
27.7680,0.9284
27.7720,0.8617
27.7760,0.6372
27.7800,0.4024
27.7840,0.1695
27.7880,-0.0291
27.7920,-0.2104
27.7960,-0.2906
27.8000,-0.3066
27.8040,-0.2913
27.8080,-0.2301
27.8120,-0.2032
27.8160,-0.1739
27.8200,-0.1348
27.8240,-0.0798
27.8280,-0.0899
27.8320,-0.0840
27.8360,-0.1036
27.8400,-0.1105
27.8440,-0.0836
27.8480,-0.1035
27.8520,-0.0992
27.8560,-0.0769
27.8600,-0.0635
27.8640,-0.0897
27.8680,-0.0980
27.8720,-0.1177
27.8760,-0.0852
27.8800,-0.0907
27.8840,-0.0763
27.8880,-0.0998
27.8920,-0.1111
27.8960,-0.0976
27.9000,-0.0921
27.9040,-0.0734
27.9080,-0.0591
27.9120,-0.0509
27.9160,-0.0786
27.9200,-0.1091
27.9240,-0.0595
27.9280,-0.0789
27.9320,-0.0534
27.9360,-0.0472
27.9400,-0.0130
27.9440,0.0086
27.9480,-0.0097
27.9520,0.0213
27.9560,0.0241
27.9600,0.0430
27.9640,0.1094
27.9680,0.0996
27.9720,0.0907
27.9760,0.1067
27.9800,0.1482
27.9840,0.1634
27.9880,0.1530
27.9920,0.1593
27.9960,0.1983
28.0000,0.2041
28.0040,0.2111
28.0080,0.2159
28.0120,0.1959
28.0160,0.1845
28.0200,0.1534
28.0240,0.1939
28.0280,0.1572
28.0320,0.1597
28.0360,0.1264
28.0400,0.1112
28.0440,0.1185
28.0480,0.0926
28.0520,0.0503
28.0560,0.0424
28.0600,0.0457
28.0640,0.0158
28.0680,0.0243
28.0720,-0.0287
28.0760,-0.0293
28.0800,-0.0765
28.0840,-0.0351
28.0880,-0.0209
28.0920,-0.0632
28.0960,-0.1167
28.1000,-0.0764
28.1040,-0.0706
28.1080,-0.0880
28.1120,-0.0998
28.1160,-0.0597
28.1200,-0.0732
28.1240,-0.0804
28.1280,-0.1086
28.1320,-0.0939
28.1360,-0.0918
28.1400,-0.1017
28.1440,-0.0861
28.1480,-0.0690
28.1520,-0.0820
28.1560,-0.1152
28.1600,-0.0812
28.1640,-0.0653
28.1680,-0.1116
28.1720,-0.0929
28.1760,-0.1016
28.1800,-0.0837
28.1840,-0.0905
28.1880,-0.0739
28.1920,-0.0920
28.1960,-0.0738
28.2000,-0.0852
28.2040,-0.0796
28.2080,-0.0632
28.2120,-0.0836
28.2160,-0.0770
28.2200,-0.0860
28.2240,-0.0768
28.2280,-0.0619
28.2320,-0.0957
28.2360,-0.1079
28.2400,-0.0845
28.2440,-0.0615
28.2480,-0.0749
28.2520,-0.0844
28.2560,-0.1135
28.2600,-0.0728
28.2640,-0.0730
28.2680,-0.0853
28.2720,-0.1005
28.2760,-0.1255
28.2800,-0.0844
28.2840,-0.0672
28.2880,-0.1141
28.2920,-0.1039
28.2960,-0.1164
28.3000,-0.0900
28.3040,-0.0722
28.3080,-0.0761
28.3120,-0.0856
28.3160,-0.0738
28.3200,-0.0464
28.3240,-0.0807
28.3280,-0.0696
28.3320,-0.0804
28.3360,-0.0823
28.3400,-0.1027
28.3440,-0.0807
28.3480,-0.1170
28.3520,-0.0928
28.3560,-0.0799
28.3600,-0.0823
28.3640,-0.0369
28.3680,-0.0204
28.3720,-0.0535
28.3760,-0.0441
28.3800,-0.0481
28.3840,0.0406
28.3880,0.0518
28.3920,0.0167
28.3960,0.0124
28.4000,0.0215
28.4040,0.0418
28.4080,0.0456
28.4120,0.0124
28.4160,-0.0000
28.4200,0.0161
28.4240,0.0024
28.4280,-0.0152
28.4320,-0.0174
28.4360,-0.0390
28.4400,-0.0600
28.4440,-0.0672
28.4480,-0.0756
28.4520,-0.0781
28.4560,-0.0826
28.4600,-0.0663
28.4640,-0.0504
28.4680,-0.0669
28.4720,-0.0695
28.4760,-0.0592
28.4800,-0.0607
28.4840,-0.0765
28.4880,-0.0697
28.4920,-0.0913
28.4960,-0.0998
28.5000,-0.0591
28.5040,-0.0358
28.5080,-0.1057
28.5120,-0.1478
28.5160,-0.1595
28.5200,-0.1637
28.5240,-0.1296
28.5280,-0.1226
28.5320,-0.0551
28.5360,0.0360
28.5400,0.1757
28.5440,0.4045
28.5480,0.6489
28.5520,0.8458
28.5560,0.9268
28.5600,0.8740
28.5640,0.6712
28.5680,0.3810
28.5720,0.1374
28.5760,-0.0611
28.5800,-0.1836
28.5840,-0.2220
28.5880,-0.2905
28.5920,-0.2471
28.5960,-0.2067
28.6000,-0.1381
28.6040,-0.0692
28.6080,-0.0795
28.6120,-0.0758
28.6160,-0.0604
28.6200,-0.0676
28.6240,-0.0432
28.6280,-0.0570
28.6320,-0.0641
28.6360,-0.0670
28.6400,-0.0631
28.6440,-0.0571
28.6480,-0.0699
28.6520,-0.0716
28.6560,-0.0391
28.6600,-0.0512
28.6640,-0.0290
28.6680,-0.0534
28.6720,-0.0550
28.6760,-0.0839
28.6800,-0.0586
28.6840,-0.0529
28.6880,-0.0402
28.6920,-0.0600
28.6960,-0.0508
28.7000,-0.0357
28.7040,-0.0168
28.7080,-0.0431
28.7120,-0.0399
28.7160,-0.0341
28.7200,-0.0186
28.7240,0.0093
28.7280,0.0338
28.7320,0.0122
28.7360,0.0232
28.7400,0.0297
28.7440,0.0760
28.7480,0.0832
28.7520,0.0710
28.7560,0.1157
28.7600,0.1154
28.7640,0.1807
28.7680,0.1403
28.7720,0.1831
28.7760,0.2033
28.7800,0.1882
28.7840,0.2111
28.7880,0.2333
28.7920,0.2610
28.7960,0.2428
28.8000,0.2444
28.8040,0.2715
28.8080,0.2433
28.8120,0.2197
28.8160,0.2131
28.8200,0.2521
28.8240,0.2224
28.8280,0.2062
28.8320,0.1981
28.8360,0.1587
28.8400,0.1432
28.8440,0.1588
28.8480,0.1204
28.8520,0.1020
28.8560,0.0952
28.8600,0.0621
28.8640,0.0554
28.8680,0.0532
28.8720,0.0423
28.8760,0.0075
28.8800,0.0123
28.8840,-0.0117
28.8880,-0.0267
28.8920,-0.0218
28.8960,-0.0264
28.9000,-0.0378
28.9040,-0.0325
28.9080,-0.0109
28.9120,-0.0523
28.9160,-0.0376
28.9200,-0.0273
28.9240,-0.0076
28.9280,-0.0179
28.9320,-0.0277
28.9360,-0.0330
28.9400,-0.0171
28.9440,-0.0197
28.9480,-0.0539
28.9520,-0.0359
28.9560,-0.0284
28.9600,-0.0251
28.9640,-0.0036
28.9680,-0.0241
28.9720,-0.0260
28.9760,-0.0425
28.9800,-0.0161
28.9840,-0.0155
28.9880,-0.0293
28.9920,-0.0269
28.9960,-0.0359
29.0000,-0.0214
29.0040,0.0072
29.0080,0.0031
29.0120,-0.0157
29.0160,-0.0314
29.0200,-0.0338
29.0240,0.0100
29.0280,-0.0172
29.0320,-0.0212
29.0360,-0.0337
29.0400,-0.0220
29.0440,0.0016
29.0480,-0.0052
29.0520,0.0051
29.0560,-0.0088
29.0600,-0.0075
29.0640,-0.0126
29.0680,-0.0329
29.0720,-0.0206
29.0760,-0.0294
29.0800,-0.0305
29.0840,0.0061
29.0880,0.0006
29.0920,-0.0115
29.0960,-0.0231
29.1000,-0.0013
29.1040,-0.0078
29.1080,-0.0117
29.1120,0.0126
29.1160,-0.0200
29.1200,0.0094
29.1240,0.0042
29.1280,-0.0183
29.1320,-0.0228
29.1360,0.0106
29.1400,-0.0121
29.1440,0.0189
29.1480,-0.0183
29.1520,0.0020
29.1560,-0.0146
29.1600,0.0032
29.1640,0.0180
29.1680,0.0298
29.1720,0.0011
29.1760,0.0447
29.1800,0.0500
29.1840,0.0330
29.1880,0.0444
29.1920,0.0220
29.1960,0.0530
29.2000,0.0558
29.2040,0.0788
29.2080,0.1291
29.2120,0.1175
29.2160,0.1247
29.2200,0.1421
29.2240,0.1400
29.2280,0.1415
29.2320,0.1068
29.2360,0.0690
29.2400,0.1033
29.2440,0.0906
29.2480,0.0741
29.2520,0.0778
29.2560,0.0588
29.2600,0.0493
29.2640,0.0536
29.2680,0.0279
29.2720,0.0016
29.2760,0.0334
29.2800,0.0109
29.2840,0.0198
29.2880,0.0038
29.2920,0.0175
29.2960,0.0174
29.3000,-0.0212
29.3040,0.0411
29.3080,0.0346
29.3120,0.0118
29.3160,0.0263
29.3200,0.0368
29.3240,0.0233
29.3280,-0.0099
29.3320,-0.0080
29.3360,-0.0615
29.3400,-0.0596
29.3440,-0.0381
29.3480,-0.0619
29.3520,-0.0106
29.3560,0.0611
29.3600,0.1771
29.3640,0.3769
29.3680,0.5528
29.3720,0.8019
29.3760,0.9690
29.3800,1.0013
29.3840,0.9086
29.3880,0.6907
29.3920,0.4213
29.3960,0.2032
29.4000,0.0197
29.4040,-0.1093
29.4080,-0.1490
29.4120,-0.1776
29.4160,-0.0986
29.4200,-0.0417
29.4240,-0.0041
29.4280,0.0213
29.4320,0.0538
29.4360,0.0486
29.4400,0.0350
29.4440,0.0259
29.4480,0.0697
29.4520,0.0370
29.4560,0.0297
29.4600,0.0414
29.4640,0.0739
29.4680,0.0240
29.4720,0.0529
29.4760,0.0452
29.4800,0.0596
29.4840,0.0609
29.4880,0.0693
29.4920,0.0329
29.4960,0.0416
29.5000,0.0439
29.5040,0.0569
29.5080,0.0359
29.5120,0.0698
29.5160,0.0202
29.5200,0.0790
29.5240,0.0836
29.5280,0.0811
29.5320,0.0443
29.5360,0.0771
29.5400,0.0915
29.5440,0.1231
29.5480,0.1121
29.5520,0.0871
29.5560,0.1102
29.5600,0.1355
29.5640,0.1544
29.5680,0.1709
29.5720,0.1732
29.5760,0.2091
29.5800,0.1985
29.5840,0.2533
29.5880,0.2648
29.5920,0.2271
29.5960,0.2857
29.6000,0.2971
29.6040,0.3301
29.6080,0.3371
29.6120,0.3395
29.6160,0.3221
29.6200,0.3595
29.6240,0.3440
29.6280,0.3746
29.6320,0.3689
29.6360,0.3675
29.6400,0.3581
29.6440,0.3558
29.6480,0.3570
29.6520,0.3092
29.6560,0.3254
29.6600,0.2589
29.6640,0.2773
29.6680,0.2557
29.6720,0.2625
29.6760,0.2216
29.6800,0.2284
29.6840,0.2136
29.6880,0.2000
29.6920,0.1555
29.6960,0.1578
29.7000,0.1290
29.7040,0.1708
29.7080,0.1299
29.7120,0.1342
29.7160,0.0992
29.7200,0.1009
29.7240,0.1216
29.7280,0.0886
29.7320,0.1029
29.7360,0.0965
29.7400,0.0657
29.7440,0.0898
29.7480,0.0969
29.7520,0.0854
29.7560,0.0796
29.7600,0.0846
29.7640,0.1176
29.7680,0.1051
29.7720,0.0878
29.7760,0.0866
29.7800,0.0976
29.7840,0.0967
29.7880,0.1082
29.7920,0.0772
29.7960,0.1450
29.8000,0.0915
29.8040,0.0911
29.8080,0.0883
29.8120,0.0964
29.8160,0.0893
29.8200,0.0907
29.8240,0.0990
29.8280,0.1053
29.8320,0.0873
29.8360,0.0648
29.8400,0.1003
29.8440,0.0718
29.8480,0.0997
29.8520,0.0997
29.8560,0.0873
29.8600,0.1009
29.8640,0.1281
29.8680,0.1214
29.8720,0.0709
29.8760,0.0932
29.8800,0.1006
29.8840,0.1168
29.8880,0.0943
29.8920,0.0647
29.8960,0.1143
29.9000,0.1105
29.9040,0.0908
29.9080,0.1093
29.9120,0.1019
29.9160,0.1049
29.9200,0.0946
29.9240,0.0986
29.9280,0.1291
29.9320,0.1027
29.9360,0.0966
29.9400,0.1060
29.9440,0.1192
29.9480,0.1042
29.9520,0.1031
29.9560,0.0965
29.9600,0.0903
29.9640,0.1045
29.9680,0.1149
29.9720,0.0941
29.9760,0.1124
29.9800,0.1219
29.9840,0.1101
29.9880,0.1221
29.9920,0.1403
29.9960,0.1216
30.0000,0.1159
30.0040,0.1220
30.0080,0.1268
30.0120,0.0956
30.0160,0.1048
30.0200,0.1204
30.0240,0.1579
30.0280,0.1145
30.0320,0.1381
30.0360,0.1360
30.0400,0.1691
30.0440,0.1813
30.0480,0.2021
30.0520,0.1947
30.0560,0.1706
30.0600,0.2456
30.0640,0.2494
30.0680,0.2462
30.0720,0.2394
30.0760,0.2265
30.0800,0.2364
30.0840,0.2454
30.0880,0.2061
30.0920,0.2139
30.0960,0.1733
30.1000,0.1846
30.1040,0.1690
30.1080,0.1846
30.1120,0.1318
30.1160,0.1104
30.1200,0.1419
30.1240,0.1531
30.1280,0.1378
30.1320,0.1232
30.1360,0.1184
30.1400,0.1435
30.1440,0.1626
30.1480,0.1453
30.1520,0.1201
30.1560,0.1051
30.1600,0.1192
30.1640,0.1699
30.1680,0.1590
30.1720,0.1379
30.1760,0.1355
30.1800,0.1022
30.1840,0.1203
30.1880,0.0629
30.1920,0.0386
30.1960,0.0490
30.2000,0.0144
30.2040,0.0908
30.2080,0.1201
30.2120,0.1894
30.2160,0.3183
30.2200,0.4945
30.2240,0.7751
30.2280,0.9834
30.2320,1.1232
30.2360,1.0992
30.2400,0.9472
30.2440,0.6943
30.2480,0.4148
30.2520,0.2359
30.2560,0.0643
30.2600,-0.0374
30.2640,-0.0548
30.2680,-0.0461
30.2720,0.0021
30.2760,0.0515
30.2800,0.1113
30.2840,0.1391
30.2880,0.1432
30.2920,0.1323
30.2960,0.1109
30.3000,0.1362
30.3040,0.1473
30.3080,0.1523
30.3120,0.1453
30.3160,0.1386
30.3200,0.1296
30.3240,0.1418
30.3280,0.1483
30.3320,0.1219
30.3360,0.1053
30.3400,0.1172
30.3440,0.1296
30.3480,0.1614
30.3520,0.0931
30.3560,0.1485
30.3600,0.1463
30.3640,0.1372
30.3680,0.1719
30.3720,0.1529
30.3760,0.1366
30.3800,0.1458
30.3840,0.1386
30.3880,0.1932
30.3920,0.1423
30.3960,0.1652
30.4000,0.1833
30.4040,0.1841
30.4080,0.2012
30.4120,0.1906
30.4160,0.1903
30.4200,0.2372
30.4240,0.2202
30.4280,0.2448
30.4320,0.2432
30.4360,0.2518
30.4400,0.2825
30.4440,0.2707
30.4480,0.3187
30.4520,0.3107
30.4560,0.3535
30.4600,0.3267
30.4640,0.3852
30.4680,0.4189
30.4720,0.4076
30.4760,0.4410
30.4800,0.4323
30.4840,0.4506
30.4880,0.4384
30.4920,0.4483
30.4960,0.4217
30.5000,0.4347
30.5040,0.4285
30.5080,0.4188
30.5120,0.3823
30.5160,0.4055
30.5200,0.3977
30.5240,0.3829
30.5280,0.3631
30.5320,0.3137
30.5360,0.3186
30.5400,0.3016
30.5440,0.3071
30.5480,0.2493
30.5520,0.2370
30.5560,0.2217
30.5600,0.2436
30.5640,0.2059
30.5680,0.2127
30.5720,0.1873
30.5760,0.1746
30.5800,0.1794
30.5840,0.1581
30.5880,0.1895
30.5920,0.1742
30.5960,0.1624
30.6000,0.1451
30.6040,0.1519
30.6080,0.1582
30.6120,0.1494
30.6160,0.1665
30.6200,0.1684
30.6240,0.1762
30.6280,0.1493
30.6320,0.1496
30.6360,0.1229
30.6400,0.1571
30.6440,0.1431
30.6480,0.1580
30.6520,0.1246
30.6560,0.1316
30.6600,0.1484
30.6640,0.1526
30.6680,0.1118
30.6720,0.1340
30.6760,0.1260
30.6800,0.1324
30.6840,0.1406
30.6880,0.1204
30.6920,0.1194
30.6960,0.1302
30.7000,0.1610
30.7040,0.1600
30.7080,0.1125
30.7120,0.1365
30.7160,0.1344
30.7200,0.1242
30.7240,0.1423
30.7280,0.1255
30.7320,0.1460
30.7360,0.1230
30.7400,0.1287
30.7440,0.1508
30.7480,0.1536
30.7520,0.1117
30.7560,0.1345
30.7600,0.1121
30.7640,0.1547
30.7680,0.1466
30.7720,0.1398
30.7760,0.1029
30.7800,0.1424
30.7840,0.1461
30.7880,0.1226
30.7920,0.1267
30.7960,0.1190
30.8000,0.1224
30.8040,0.1229
30.8080,0.1573
30.8120,0.1115
30.8160,0.1285
30.8200,0.1297
30.8240,0.1554
30.8280,0.1430
30.8320,0.1357
30.8360,0.1326
30.8400,0.1370
30.8440,0.1343
30.8480,0.1159
30.8520,0.1297
30.8560,0.0996
30.8600,0.1169
30.8640,0.1598
30.8680,0.1492
30.8720,0.1209
30.8760,0.1046
30.8800,0.1327
30.8840,0.1585
30.8880,0.1350
30.8920,0.1106
30.8960,0.1119
30.9000,0.1303
30.9040,0.1419
30.9080,0.1259
30.9120,0.1103
30.9160,0.0890
30.9200,0.1100
30.9240,0.1453
30.9280,0.1072
30.9320,0.1305
30.9360,0.1130
30.9400,0.1357
30.9440,0.1422
30.9480,0.1523
30.9520,0.1626
30.9560,0.1466
30.9600,0.1863
30.9640,0.1775
30.9680,0.1885
30.9720,0.2094
30.9760,0.2297
30.9800,0.2370
30.9840,0.2481
30.9880,0.2404
30.9920,0.2324
30.9960,0.2161
31.0000,0.2281
31.0040,0.2198
31.0080,0.1938
31.0120,0.1790
31.0160,0.1579
31.0200,0.1503
31.0240,0.1648
31.0280,0.1464
31.0320,0.1271
31.0360,0.1075
31.0400,0.1162
31.0440,0.1293
31.0480,0.1326
31.0520,0.1042
31.0560,0.1047
31.0600,0.1045
31.0640,0.1085
31.0680,0.1282
31.0720,0.1175
31.0760,0.1023
31.0800,0.1117
31.0840,0.1176
31.0880,0.1208
31.0920,0.1097
31.0960,0.0909
31.1000,0.0986
31.1040,0.0884
31.1080,0.0445
31.1120,0.0368
31.1160,-0.0380
31.1200,0.0124
31.1240,0.0442
31.1280,0.1314
31.1320,0.1556
31.1360,0.2755
31.1400,0.4739
31.1440,0.6892
31.1480,0.8943
31.1520,1.0563
31.1560,1.0778
31.1600,0.9430
31.1640,0.7178
31.1680,0.4648
31.1720,0.2395
31.1760,0.0582
31.1800,-0.0540
31.1840,-0.1163
31.1880,-0.0937
31.1920,-0.0740
31.1960,-0.0379
31.2000,0.0409
31.2040,0.0404
31.2080,0.0962
31.2120,0.0771
31.2160,0.0520
31.2200,0.0708
31.2240,0.1099
31.2280,0.1070
31.2320,0.0521
31.2360,0.0957
31.2400,0.0838
31.2440,0.1020
31.2480,0.0961
31.2520,0.0784
31.2560,0.0719
31.2600,0.0591
31.2640,0.0882
31.2680,0.0890
31.2720,0.0982
31.2760,0.0816
31.2800,0.0834
31.2840,0.1272
31.2880,0.1040
31.2920,0.1095
31.2960,0.1049
31.3000,0.0781
31.3040,0.0867
31.3080,0.1069
31.3120,0.0660
31.3160,0.1037
31.3200,0.1241
31.3240,0.1305
31.3280,0.1111
31.3320,0.1264
31.3360,0.1224
31.3400,0.1282
31.3440,0.1709
31.3480,0.1885
31.3520,0.1888
31.3560,0.1688
31.3600,0.1861
31.3640,0.2285
31.3680,0.2422
31.3720,0.2339
31.3760,0.2729
31.3800,0.2816
31.3840,0.3142
31.3880,0.3236
31.3920,0.2996
31.3960,0.3281
31.4000,0.3270
31.4040,0.3447
31.4080,0.3505
31.4120,0.3523
31.4160,0.3442
31.4200,0.3613
31.4240,0.3711
31.4280,0.3326
31.4320,0.3277
31.4360,0.3090
31.4400,0.2965
31.4440,0.2633
31.4480,0.2806
31.4520,0.2611
31.4560,0.2304
31.4600,0.2228
31.4640,0.1904
31.4680,0.1854
31.4720,0.1531
31.4760,0.1019
31.4800,0.1385
31.4840,0.1384
31.4880,0.1540
31.4920,0.0846
31.4960,0.0828
31.5000,0.1088
31.5040,0.0711
31.5080,0.0908
31.5120,0.0681
31.5160,0.0727
31.5200,0.0390
31.5240,0.0636
31.5280,0.0427
31.5320,0.0509
31.5360,0.0164
31.5400,0.0588
31.5440,0.0593
31.5480,0.0674
31.5520,0.0297
31.5560,-0.0130
31.5600,0.0451
31.5640,0.0206
31.5680,0.0534
31.5720,0.0365
31.5760,0.0088
31.5800,0.0353
31.5840,0.0408
31.5880,0.0529
31.5920,0.0358
31.5960,0.0101
31.6000,0.0385
31.6040,0.0330
31.6080,0.0403
31.6120,-0.0075
31.6160,0.0449
31.6200,0.0175
31.6240,0.0171
31.6280,0.0436
31.6320,0.0231
31.6360,-0.0118
31.6400,0.0063
31.6440,0.0081
31.6480,0.0191
31.6520,0.0186
31.6560,0.0264
31.6600,-0.0116
31.6640,-0.0007
31.6680,0.0012
31.6720,0.0362
31.6760,0.0220
31.6800,0.0106
31.6840,0.0095
31.6880,0.0358
31.6920,-0.0097
31.6960,0.0247
31.7000,0.0021
31.7040,0.0134
31.7080,0.0182
31.7120,-0.0039
31.7160,-0.0113
31.7200,0.0269
31.7240,0.0131
31.7280,-0.0208
31.7320,-0.0106
31.7360,-0.0034
31.7400,0.0048
31.7440,-0.0177
31.7480,-0.0056
31.7520,-0.0184
31.7560,-0.0041
31.7600,0.0306
31.7640,0.0078
31.7680,0.0123
31.7720,-0.0169
31.7760,-0.0138
31.7800,-0.0027
31.7840,0.0102
31.7880,0.0070
31.7920,-0.0127
31.7960,-0.0210
31.8000,0.0007
31.8040,-0.0180
31.8080,0.0035
31.8120,-0.0516
31.8160,-0.0163
31.8200,-0.0457
31.8240,-0.0033
31.8280,0.0047
31.8320,0.0094
31.8360,-0.0273
31.8400,-0.0141
31.8440,-0.0252
31.8480,0.0103
31.8520,-0.0536
31.8560,-0.0275
31.8600,-0.0217
31.8640,-0.0054
31.8680,0.0038
31.8720,-0.0039
31.8760,-0.0266
31.8800,-0.0195
31.8840,0.0186
31.8880,0.0021
